1.40E+00
1.44E+00
1.36E+00
1.44E+00
1.40E+00
1.44E+00
1.40E+00
1.44E+00
1.40E+00
1.44E+00
1.40E+00
1.40E+00
1.36E+00
1.40E+00
1.36E+00
1.44E+00
1.36E+00
1.44E+00
1.36E+00
1.40E+00
1.32E+00
1.36E+00
1.32E+00
1.36E+00
1.32E+00
1.36E+00
1.36E+00
1.32E+00
1.36E+00
1.28E+00
1.32E+00
1.28E+00
1.28E+00
1.24E+00
1.24E+00
1.32E+00
1.32E+00
1.28E+00
1.32E+00
1.24E+00
1.28E+00
1.24E+00
1.28E+00
1.24E+00
1.24E+00
1.32E+00
1.32E+00
1.28E+00
1.32E+00
1.28E+00
1.32E+00
1.24E+00
1.28E+00
1.24E+00
1.32E+00
1.24E+00
1.32E+00
1.28E+00
1.32E+00
1.28E+00
1.32E+00
1.28E+00
1.24E+00
1.24E+00
1.32E+00
1.32E+00
1.28E+00
1.32E+00
1.28E+00
1.32E+00
1.28E+00
1.32E+00
1.24E+00
1.32E+00
1.28E+00
1.28E+00
1.36E+00
1.36E+00
1.28E+00
1.36E+00
1.28E+00
1.32E+00
1.24E+00
1.32E+00
1.28E+00
1.36E+00
1.28E+00
1.36E+00
1.32E+00
1.36E+00
1.28E+00
1.32E+00
1.28E+00
1.36E+00
1.28E+00
1.36E+00
1.32E+00
1.36E+00
1.32E+00
1.36E+00
1.32E+00
1.36E+00
1.28E+00
1.36E+00
1.36E+00
1.32E+00
1.32E+00
1.40E+00
1.40E+00
1.32E+00
1.36E+00
1.32E+00
1.36E+00
1.32E+00
1.36E+00
1.32E+00
1.40E+00
1.32E+00
1.40E+00
1.32E+00
1.36E+00
1.32E+00
1.36E+00
1.32E+00
1.36E+00
1.32E+00
1.36E+00
1.32E+00
1.36E+00
1.28E+00
1.32E+00
1.28E+00
1.32E+00
1.28E+00
1.32E+00
1.28E+00
1.36E+00
1.28E+00
1.36E+00
1.32E+00
1.28E+00
1.32E+00
1.28E+00
1.28E+00
1.36E+00
1.36E+00
1.32E+00
1.36E+00
1.32E+00
1.36E+00
1.32E+00
1.36E+00
1.32E+00
1.36E+00
1.32E+00
1.40E+00
1.32E+00
1.36E+00
1.32E+00
1.36E+00
1.32E+00
1.36E+00
1.28E+00
1.28E+00
1.36E+00
1.36E+00
1.32E+00
1.36E+00
1.32E+00
1.36E+00
1.32E+00
1.36E+00
1.32E+00
1.36E+00
1.32E+00
1.36E+00
1.32E+00
1.36E+00
1.32E+00
1.36E+00
1.28E+00
1.32E+00
1.28E+00
1.32E+00
1.28E+00
1.36E+00
1.28E+00
1.36E+00
1.32E+00
1.36E+00
1.28E+00
1.32E+00
1.28E+00
1.32E+00
1.28E+00
1.36E+00
1.28E+00
1.36E+00
1.32E+00
1.36E+00
1.32E+00
1.36E+00
1.32E+00
1.36E+00
1.32E+00
1.40E+00
1.32E+00
1.40E+00
1.32E+00
1.40E+00
1.32E+00
1.36E+00
1.32E+00
1.32E+00
1.40E+00
1.40E+00
1.32E+00
1.40E+00
1.36E+00
1.36E+00
1.32E+00
1.36E+00
1.28E+00
1.32E+00
1.28E+00
1.36E+00
1.28E+00
1.36E+00
1.32E+00
1.36E+00
1.28E+00
1.32E+00
1.28E+00
1.28E+00
1.36E+00
1.36E+00
1.32E+00
1.36E+00
1.32E+00
1.36E+00
1.28E+00
1.36E+00
1.32E+00
1.28E+00
1.28E+00
1.36E+00
1.36E+00
1.32E+00
1.36E+00
1.28E+00
1.36E+00
1.28E+00
1.36E+00
1.32E+00
1.40E+00
1.32E+00
1.44E+00
1.36E+00
1.40E+00
1.32E+00
1.36E+00
1.32E+00
1.36E+00
1.32E+00
1.36E+00
1.32E+00
1.36E+00
1.32E+00
1.36E+00
1.32E+00
1.36E+00
1.32E+00
1.36E+00
1.28E+00
1.36E+00
1.32E+00
1.36E+00
1.32E+00
1.36E+00
1.32E+00
1.36E+00
1.32E+00
1.36E+00
1.32E+00
1.36E+00
1.40E+00
1.32E+00
1.40E+00
1.32E+00
1.40E+00
1.32E+00
1.40E+00
1.32E+00
1.32E+00
1.40E+00
1.36E+00
1.44E+00
1.44E+00
1.40E+00
1.40E+00
1.36E+00
1.40E+00
1.32E+00
1.36E+00
1.32E+00
1.36E+00
1.32E+00
1.36E+00
1.32E+00
1.36E+00
1.28E+00
1.32E+00
1.24E+00
1.24E+00
1.32E+00
1.32E+00
1.28E+00
1.32E+00
1.28E+00
1.32E+00
1.28E+00
1.28E+00
1.24E+00
1.28E+00
1.24E+00
1.28E+00
1.24E+00
1.28E+00
1.20E+00
1.24E+00
1.16E+00
1.24E+00
1.20E+00
1.20E+00
1.32E+00
1.28E+00
1.44E+00
1.40E+00
1.56E+00
1.56E+00
1.72E+00
1.68E+00
1.88E+00
1.84E+00
2.04E+00
2.08E+00
2.04E+00
2.08E+00
1.88E+00
1.92E+00
1.68E+00
1.68E+00
1.52E+00
1.56E+00
1.40E+00
1.44E+00
1.32E+00
1.36E+00
1.24E+00
1.28E+00
1.12E+00
1.16E+00
1.08E+00
1.12E+00
1.08E+00
1.12E+00
1.08E+00
1.12E+00
1.08E+00
1.12E+00
1.08E+00
1.12E+00
1.08E+00
1.08E+00
1.16E+00
1.12E+00
1.20E+00
1.16E+00
1.24E+00
1.24E+00
1.20E+00
1.24E+00
1.20E+00
1.28E+00
1.20E+00
1.24E+00
1.32E+00
1.32E+00
1.28E+00
1.32E+00
1.28E+00
1.32E+00
1.28E+00
1.32E+00
1.28E+00
1.36E+00
1.36E+00
1.28E+00
1.36E+00
1.28E+00
1.32E+00
1.28E+00
1.32E+00
1.24E+00
1.32E+00
1.28E+00
1.36E+00
1.28E+00
1.36E+00
1.28E+00
1.32E+00
1.28E+00
1.32E+00
1.28E+00
1.28E+00
1.36E+00
1.36E+00
1.32E+00
1.36E+00
1.32E+00
1.36E+00
1.32E+00
1.36E+00
1.32E+00
1.40E+00
1.32E+00
1.40E+00
1.36E+00
1.40E+00
1.36E+00
1.40E+00
1.40E+00
1.36E+00
1.36E+00
1.44E+00
1.44E+00
1.40E+00
1.44E+00
1.36E+00
1.40E+00
1.32E+00
1.36E+00
1.32E+00
1.36E+00
1.32E+00
1.40E+00
1.32E+00
1.40E+00
1.36E+00
1.40E+00
1.32E+00
1.40E+00
1.32E+00
1.40E+00
1.32E+00
1.44E+00
1.36E+00
1.44E+00
1.40E+00
1.44E+00
1.40E+00
1.44E+00
1.36E+00
1.36E+00
1.44E+00
1.40E+00
1.44E+00
1.40E+00
1.44E+00
1.40E+00
1.44E+00
1.36E+00
1.40E+00
1.36E+00
1.44E+00
1.36E+00
1.44E+00
1.40E+00
1.44E+00
1.36E+00
1.40E+00
1.32E+00
1.36E+00
1.32E+00
1.36E+00
1.32E+00
1.36E+00
1.32E+00
1.36E+00
1.28E+00
1.32E+00
1.24E+00
1.28E+00
1.24E+00
1.28E+00
1.24E+00
1.28E+00
1.24E+00
1.28E+00
1.20E+00
1.24E+00
1.16E+00
1.24E+00
1.16E+00
1.28E+00
1.20E+00
1.28E+00
1.24E+00
1.32E+00
1.24E+00
1.28E+00
1.24E+00
1.28E+00
1.24E+00
1.24E+00
1.32E+00
1.32E+00
1.28E+00
1.32E+00
1.28E+00
1.32E+00
1.28E+00
1.32E+00
1.28E+00
1.28E+00
1.36E+00
1.36E+00
1.32E+00
1.36E+00
1.32E+00
1.36E+00
1.28E+00
1.32E+00
1.28E+00
1.36E+00
1.28E+00
1.36E+00
1.28E+00
1.36E+00
1.28E+00
1.32E+00
1.28E+00
1.24E+00
1.32E+00
1.32E+00
1.28E+00
1.28E+00
1.36E+00
1.36E+00
1.32E+00
1.36E+00
1.28E+00
1.36E+00
1.28E+00
1.36E+00
1.32E+00
1.40E+00
1.32E+00
1.40E+00
1.32E+00
1.36E+00
1.32E+00
1.36E+00
1.32E+00
1.36E+00
1.32E+00
1.40E+00
1.32E+00
1.36E+00
1.32E+00
1.36E+00
1.32E+00
1.28E+00
1.36E+00
1.36E+00
1.32E+00
1.36E+00
1.32E+00
1.36E+00
1.32E+00
1.36E+00
1.28E+00
1.32E+00
1.28E+00
1.28E+00
1.36E+00
1.36E+00
1.32E+00
1.36E+00
1.32E+00
1.36E+00
1.28E+00
1.32E+00
1.28E+00
1.28E+00
1.36E+00
1.36E+00
1.28E+00
1.32E+00
1.28E+00
1.32E+00
1.24E+00
1.28E+00
1.24E+00
1.32E+00
1.28E+00
1.36E+00
1.32E+00
1.36E+00
1.32E+00
1.36E+00
1.28E+00
1.36E+00
1.28E+00
1.36E+00
1.32E+00
1.40E+00
1.32E+00
1.40E+00
1.36E+00
1.32E+00
1.36E+00
1.28E+00
1.36E+00
1.28E+00
1.36E+00
1.32E+00
1.36E+00
1.32E+00
1.36E+00
1.28E+00
1.32E+00
1.28E+00
1.32E+00
1.28E+00
1.36E+00
1.28E+00
1.36E+00
1.32E+00
1.36E+00
1.32E+00
1.36E+00
1.28E+00
1.32E+00
1.28E+00
1.36E+00
1.28E+00
1.36E+00
1.32E+00
1.36E+00
1.28E+00
1.32E+00
1.28E+00
1.28E+00
1.36E+00
1.36E+00
1.32E+00
1.36E+00
1.32E+00
1.36E+00
1.32E+00
1.36E+00
1.28E+00
1.36E+00
1.32E+00
1.36E+00
1.32E+00
1.40E+00
1.32E+00
1.36E+00
1.32E+00
1.36E+00
1.32E+00
1.36E+00
1.32E+00
1.36E+00
1.32E+00
1.36E+00
1.32E+00
1.36E+00
1.28E+00
1.32E+00
1.28E+00
1.32E+00
1.28E+00
1.28E+00
1.36E+00
1.36E+00
1.32E+00
1.36E+00
1.28E+00
1.36E+00
1.28E+00
1.28E+00
1.36E+00
1.36E+00
1.28E+00
1.36E+00
1.32E+00
1.36E+00
1.32E+00
1.36E+00
1.28E+00
1.36E+00
1.28E+00
1.36E+00
1.32E+00
1.36E+00
1.32E+00
1.36E+00
1.32E+00
1.36E+00
1.32E+00
1.36E+00
1.32E+00
1.36E+00
1.32E+00
1.36E+00
1.32E+00
1.36E+00
1.32E+00
1.36E+00
1.32E+00
1.36E+00
1.32E+00
1.36E+00
1.32E+00
1.40E+00
1.32E+00
1.40E+00
1.32E+00
1.36E+00
1.36E+00
1.32E+00
1.36E+00
1.32E+00
1.40E+00
1.32E+00
1.40E+00
1.32E+00
1.36E+00
1.32E+00
1.36E+00
1.32E+00
1.36E+00
1.32E+00
1.36E+00
1.32E+00
1.36E+00
1.32E+00
1.36E+00
1.28E+00
1.32E+00
1.28E+00
1.32E+00
1.28E+00
1.36E+00
1.28E+00
1.32E+00
1.28E+00
1.32E+00
1.24E+00
1.28E+00
1.24E+00
1.32E+00
1.24E+00
1.32E+00
1.28E+00
1.32E+00
1.24E+00
1.28E+00
1.20E+00
1.24E+00
1.16E+00
1.16E+00
1.24E+00
1.28E+00
1.20E+00
1.24E+00
1.36E+00
1.32E+00
1.44E+00
1.40E+00
1.60E+00
1.56E+00
1.76E+00
1.72E+00
1.92E+00
1.88E+00
2.00E+00
1.96E+00
1.80E+00
1.80E+00
1.68E+00
1.72E+00
1.56E+00
1.60E+00
1.48E+00
1.48E+00
1.32E+00
1.36E+00
1.24E+00
1.28E+00
1.16E+00
1.20E+00
1.12E+00
1.20E+00
1.12E+00
1.16E+00
1.12E+00
1.16E+00
1.12E+00
1.16E+00
1.08E+00
1.16E+00
1.12E+00
1.20E+00
1.16E+00
1.24E+00
1.16E+00
1.20E+00
1.16E+00
1.24E+00
1.16E+00
1.28E+00
1.20E+00
1.20E+00
1.28E+00
1.28E+00
1.24E+00
1.28E+00
1.24E+00
1.28E+00
1.24E+00
1.28E+00
1.24E+00
1.32E+00
1.28E+00
1.32E+00
1.28E+00
1.32E+00
1.28E+00
1.32E+00
1.28E+00
1.32E+00
1.28E+00
1.36E+00
1.28E+00
1.36E+00
1.28E+00
1.32E+00
1.28E+00
1.32E+00
1.28E+00
1.28E+00
1.36E+00
1.36E+00
1.32E+00
1.36E+00
1.32E+00
1.36E+00
1.28E+00
1.36E+00
1.32E+00
1.36E+00
1.32E+00
1.40E+00
1.32E+00
1.40E+00
1.32E+00
1.40E+00
1.32E+00
1.36E+00
1.32E+00
1.40E+00
1.32E+00
1.40E+00
1.36E+00
1.40E+00
1.36E+00
1.40E+00
1.32E+00
1.40E+00
1.32E+00
1.40E+00
1.32E+00
1.36E+00
1.44E+00
1.44E+00
1.40E+00
1.44E+00
1.40E+00
1.44E+00
1.40E+00
1.44E+00
1.40E+00
1.48E+00
1.40E+00
1.48E+00
1.40E+00
1.44E+00
1.40E+00
1.44E+00
1.36E+00
1.44E+00
1.40E+00
1.44E+00
1.40E+00
1.44E+00
1.40E+00
1.44E+00
1.36E+00
1.40E+00
1.36E+00
1.40E+00
1.36E+00
1.36E+00
1.44E+00
1.44E+00
1.36E+00
1.40E+00
1.40E+00
1.32E+00
1.36E+00
1.32E+00
1.36E+00
1.32E+00
1.36E+00
1.32E+00
1.36E+00
1.28E+00
1.32E+00
1.24E+00
1.28E+00
1.24E+00
1.28E+00
1.24E+00
1.32E+00
1.24E+00
1.28E+00
1.24E+00
1.28E+00
1.24E+00
1.28E+00
1.24E+00
1.28E+00
1.24E+00
1.28E+00
1.24E+00
1.28E+00
1.20E+00
1.28E+00
1.20E+00
1.28E+00
1.20E+00
1.28E+00
1.24E+00
1.28E+00
1.24E+00
1.28E+00
1.24E+00
1.28E+00
1.20E+00
1.28E+00
1.24E+00
1.24E+00
1.32E+00
1.32E+00
1.28E+00
1.32E+00
1.24E+00
1.28E+00
1.24E+00
1.24E+00
1.32E+00
1.28E+00
1.36E+00
1.36E+00
1.32E+00
1.36E+00
1.32E+00
1.36E+00
1.28E+00
1.36E+00
1.32E+00
1.40E+00
1.32E+00
1.40E+00
1.32E+00
1.40E+00
1.32E+00
1.36E+00
1.32E+00
1.36E+00
1.32E+00
1.36E+00
1.32E+00
1.36E+00
1.32E+00
1.36E+00
1.32E+00
1.36E+00
1.28E+00
1.36E+00
1.28E+00
1.36E+00
1.32E+00
1.36E+00
1.32E+00
1.36E+00
1.28E+00
1.32E+00
1.28E+00
1.28E+00
1.36E+00
1.36E+00
1.32E+00
1.36E+00
1.32E+00
1.36E+00
1.28E+00
1.32E+00
1.28E+00
1.32E+00
1.28E+00
1.36E+00
1.36E+00
1.32E+00
1.36E+00
1.32E+00
1.36E+00
1.28E+00
1.28E+00
1.36E+00
1.28E+00
1.36E+00
1.36E+00
1.32E+00
1.36E+00
1.32E+00
1.36E+00
1.32E+00
1.32E+00
1.28E+00
1.36E+00
1.28E+00
1.36E+00
1.32E+00
1.36E+00
1.32E+00
1.36E+00
1.32E+00
1.36E+00
1.28E+00
1.28E+00
1.36E+00
1.36E+00
1.32E+00
1.36E+00
1.32E+00
1.36E+00
1.28E+00
1.32E+00
1.28E+00
1.36E+00
1.28E+00
1.36E+00
1.32E+00
1.36E+00
1.32E+00
1.36E+00
1.32E+00
1.36E+00
1.28E+00
1.36E+00
1.32E+00
1.36E+00
1.32E+00
1.36E+00
1.32E+00
1.36E+00
1.28E+00
1.32E+00
1.28E+00
1.36E+00
1.28E+00
1.36E+00
1.32E+00
1.36E+00
1.28E+00
1.36E+00
1.28E+00
1.32E+00
1.28E+00
1.32E+00
1.28E+00
1.28E+00
1.36E+00
1.36E+00
1.32E+00
1.36E+00
1.28E+00
1.36E+00
1.28E+00
1.36E+00
1.32E+00
1.36E+00
1.32E+00
1.40E+00
1.32E+00
1.36E+00
1.32E+00
1.36E+00
1.28E+00
1.36E+00
1.32E+00
1.36E+00
1.32E+00
1.36E+00
1.28E+00
1.36E+00
1.28E+00
1.32E+00
1.28E+00
1.36E+00
1.28E+00
1.36E+00
1.32E+00
1.36E+00
1.32E+00
1.36E+00
1.28E+00
1.32E+00
1.28E+00
1.28E+00
1.36E+00
1.36E+00
1.36E+00
1.32E+00
1.36E+00
1.32E+00
1.36E+00
1.32E+00
1.32E+00
1.40E+00
1.40E+00
1.36E+00
1.44E+00
1.36E+00
1.40E+00
1.32E+00
1.36E+00
1.32E+00
1.40E+00
1.32E+00
1.36E+00
1.44E+00
1.44E+00
1.36E+00
1.40E+00
1.32E+00
1.36E+00
1.32E+00
1.36E+00
1.32E+00
1.36E+00
1.32E+00
1.36E+00
1.32E+00
1.36E+00
1.28E+00
1.32E+00
1.28E+00
1.32E+00
1.28E+00
1.32E+00
1.28E+00
1.36E+00
1.28E+00
1.32E+00
1.28E+00
1.32E+00
1.24E+00
1.28E+00
1.24E+00
1.28E+00
1.24E+00
1.28E+00
1.24E+00
1.28E+00
1.16E+00
1.20E+00
1.16E+00
1.16E+00
1.28E+00
1.20E+00
1.36E+00
1.32E+00
1.44E+00
1.44E+00
1.56E+00
1.56E+00
1.72E+00
1.68E+00
1.92E+00
1.88E+00
2.04E+00
2.04E+00
1.92E+00
1.96E+00
1.72E+00
1.76E+00
1.60E+00
1.60E+00
1.56E+00
1.40E+00
1.48E+00
1.32E+00
1.36E+00
1.24E+00
1.28E+00
1.16E+00
1.20E+00
1.12E+00
1.20E+00
1.12E+00
1.20E+00
1.12E+00
1.20E+00
1.12E+00
1.16E+00
1.12E+00
1.16E+00
1.12E+00
1.16E+00
1.12E+00
1.12E+00
1.20E+00
1.20E+00
1.16E+00
1.20E+00
1.12E+00
1.20E+00
1.12E+00
1.16E+00
1.24E+00
1.28E+00
1.20E+00
1.28E+00
1.24E+00
1.28E+00
1.20E+00
1.28E+00
1.24E+00
1.24E+00
1.32E+00
1.28E+00
1.36E+00
1.36E+00
1.28E+00
1.32E+00
1.28E+00
1.28E+00
1.36E+00
1.28E+00
1.36E+00
1.40E+00
1.32E+00
1.40E+00
1.32E+00
1.36E+00
1.32E+00
1.36E+00
1.32E+00
1.36E+00
1.32E+00
1.40E+00
1.32E+00
1.40E+00
1.32E+00
1.36E+00
1.32E+00
1.36E+00
1.32E+00
1.36E+00
1.32E+00
1.40E+00
1.32E+00
1.36E+00
1.32E+00
1.36E+00
1.36E+00
1.32E+00
1.36E+00
1.32E+00
1.40E+00
1.32E+00
1.40E+00
1.36E+00
1.40E+00
1.32E+00
1.40E+00
1.32E+00
1.36E+00
1.32E+00
1.32E+00
1.40E+00
1.36E+00
1.44E+00
1.44E+00
1.36E+00
1.40E+00
1.36E+00
1.36E+00
1.44E+00
1.48E+00
1.40E+00
1.48E+00
1.40E+00
1.48E+00
1.40E+00
1.44E+00
1.40E+00
1.36E+00
1.44E+00
1.44E+00
1.36E+00
1.44E+00
1.40E+00
1.44E+00
1.40E+00
1.44E+00
1.36E+00
1.36E+00
1.44E+00
1.44E+00
1.36E+00
1.44E+00
1.36E+00
1.44E+00
1.32E+00
1.36E+00
1.32E+00
1.36E+00
1.28E+00
1.36E+00
1.28E+00
1.32E+00
1.28E+00
1.32E+00
1.24E+00
1.28E+00
1.20E+00
1.28E+00
1.24E+00
1.28E+00
1.24E+00
1.28E+00
1.24E+00
1.28E+00
1.24E+00
1.28E+00
1.20E+00
1.28E+00
1.20E+00
1.28E+00
1.24E+00
1.32E+00
1.24E+00
1.28E+00
1.24E+00
1.28E+00
1.24E+00
1.28E+00
1.24E+00
1.32E+00
1.28E+00
1.36E+00
1.28E+00
1.32E+00
1.28E+00
1.32E+00
1.28E+00
1.32E+00
1.24E+00
1.36E+00
1.28E+00
1.36E+00
1.32E+00
1.36E+00
1.28E+00
1.32E+00
1.28E+00
1.32E+00
1.28E+00
1.36E+00
1.28E+00
1.36E+00
1.32E+00
1.36E+00
1.28E+00
1.32E+00
1.28E+00
1.32E+00
1.28E+00
1.36E+00
1.36E+00
1.32E+00
1.36E+00
1.32E+00
1.36E+00
1.32E+00
1.36E+00
1.32E+00
1.36E+00
1.32E+00
1.40E+00
1.32E+00
1.40E+00
1.32E+00
1.36E+00
1.32E+00
1.36E+00
1.28E+00
1.36E+00
1.32E+00
1.36E+00
1.32E+00
1.36E+00
1.32E+00
1.36E+00
1.32E+00
1.36E+00
1.32E+00
1.36E+00
1.32E+00
1.40E+00
1.40E+00
1.32E+00
1.36E+00
1.32E+00
1.36E+00
1.32E+00
1.36E+00
1.32E+00
1.36E+00
1.32E+00
1.36E+00
1.32E+00
1.36E+00
1.32E+00
1.32E+00
1.28E+00
1.32E+00
1.28E+00
1.36E+00
1.28E+00
1.36E+00
1.32E+00
1.36E+00
1.32E+00
1.36E+00
1.28E+00
1.36E+00
1.32E+00
1.40E+00
1.32E+00
1.40E+00
1.32E+00
1.36E+00
1.32E+00
1.36E+00
1.32E+00
1.36E+00
1.28E+00
1.36E+00
1.32E+00
1.36E+00
1.32E+00
1.36E+00
1.32E+00
1.36E+00
1.28E+00
1.36E+00
1.28E+00
1.36E+00
1.32E+00
1.36E+00
1.32E+00
1.36E+00
1.32E+00
1.36E+00
1.28E+00
1.28E+00
1.36E+00
1.36E+00
1.32E+00
1.36E+00
1.32E+00
1.36E+00
1.28E+00
1.32E+00
1.28E+00
1.28E+00
1.36E+00
1.36E+00
1.32E+00
1.36E+00
1.32E+00
1.36E+00
1.32E+00
1.36E+00
1.32E+00
1.36E+00
1.36E+00
1.32E+00
1.40E+00
1.32E+00
1.40E+00
1.32E+00
1.36E+00
1.32E+00
1.36E+00
1.32E+00
1.36E+00
1.32E+00
1.36E+00
1.32E+00
1.36E+00
1.32E+00
1.36E+00
1.28E+00
1.32E+00
1.28E+00
1.36E+00
1.28E+00
1.36E+00
1.32E+00
1.36E+00
1.32E+00
1.36E+00
1.28E+00
1.36E+00
1.28E+00
1.36E+00
1.32E+00
1.36E+00
1.32E+00
1.36E+00
1.32E+00
1.36E+00
1.28E+00
1.32E+00
1.28E+00
1.28E+00
1.36E+00
1.36E+00
1.32E+00
1.36E+00
1.32E+00
1.36E+00
1.32E+00
1.36E+00
1.32E+00
1.36E+00
1.32E+00
1.32E+00
1.40E+00
1.40E+00
1.32E+00
1.40E+00
1.32E+00
1.36E+00
1.32E+00
1.40E+00
1.32E+00
1.40E+00
1.36E+00
1.40E+00
1.36E+00
1.36E+00
1.32E+00
1.36E+00
1.32E+00
1.40E+00
1.32E+00
1.40E+00
1.32E+00
1.40E+00
1.32E+00
1.36E+00
1.32E+00
1.36E+00
1.28E+00
1.36E+00
1.28E+00
1.36E+00
1.32E+00
1.36E+00
1.28E+00
1.32E+00
1.24E+00
1.28E+00
1.24E+00
1.24E+00
1.32E+00
1.28E+00
1.36E+00
1.36E+00
1.28E+00
1.32E+00
1.24E+00
1.28E+00
1.20E+00
1.28E+00
1.20E+00
1.24E+00
1.20E+00
1.24E+00
1.20E+00
1.24E+00
1.20E+00
1.24E+00
1.32E+00
1.32E+00
1.48E+00
1.44E+00
1.64E+00
1.60E+00
1.68E+00
1.80E+00
1.80E+00
1.96E+00
1.92E+00
2.00E+00
2.00E+00
1.88E+00
1.92E+00
1.68E+00
1.72E+00
1.56E+00
1.56E+00
1.40E+00
1.44E+00
1.32E+00
1.36E+00
1.24E+00
1.28E+00
1.20E+00
1.24E+00
1.12E+00
1.16E+00
1.08E+00
1.12E+00
1.08E+00
1.16E+00
1.08E+00
1.16E+00
1.12E+00
1.16E+00
1.12E+00
1.16E+00
1.16E+00
1.12E+00
1.20E+00
1.12E+00
1.16E+00
1.24E+00
1.24E+00
1.20E+00
1.24E+00
1.20E+00
1.28E+00
1.20E+00
1.28E+00
1.24E+00
1.28E+00
1.24E+00
1.28E+00
1.24E+00
1.28E+00
1.24E+00
1.28E+00
1.24E+00
1.24E+00
1.32E+00
1.32E+00
1.28E+00
1.32E+00
1.28E+00
1.32E+00
1.28E+00
1.32E+00
1.28E+00
1.32E+00
1.28E+00
1.36E+00
1.32E+00
1.36E+00
1.32E+00
1.36E+00
1.28E+00
1.32E+00
1.28E+00
1.36E+00
1.28E+00
1.36E+00
1.32E+00
1.36E+00
1.32E+00
1.36E+00
1.32E+00
1.36E+00
1.32E+00
1.40E+00
1.32E+00
1.40E+00
1.36E+00
1.40E+00
1.36E+00
1.40E+00
1.32E+00
1.36E+00
1.32E+00
1.32E+00
1.40E+00
1.36E+00
1.44E+00
1.44E+00
1.40E+00
1.44E+00
1.36E+00
1.40E+00
1.36E+00
1.36E+00
1.44E+00
1.44E+00
1.40E+00
1.44E+00
1.40E+00
1.40E+00
1.36E+00
1.40E+00
1.36E+00
1.36E+00
1.44E+00
1.44E+00
1.40E+00
1.44E+00
1.40E+00
1.44E+00
1.36E+00
1.40E+00
1.36E+00
1.40E+00
1.36E+00
1.44E+00
1.40E+00
1.44E+00
1.36E+00
1.44E+00
1.36E+00
1.40E+00
1.36E+00
1.40E+00
1.36E+00
1.36E+00
1.44E+00
1.44E+00
1.36E+00
1.40E+00
1.32E+00
1.36E+00
1.28E+00
1.36E+00
1.32E+00
1.36E+00
1.32E+00
1.36E+00
1.28E+00
1.32E+00
1.24E+00
1.28E+00
1.24E+00
1.28E+00
1.20E+00
1.28E+00
1.24E+00
1.28E+00
1.24E+00
1.28E+00
1.20E+00
1.24E+00
1.16E+00
1.28E+00
1.20E+00
1.28E+00
1.20E+00
1.28E+00
1.24E+00
1.28E+00
1.24E+00
1.28E+00
1.24E+00
1.24E+00
1.32E+00
1.36E+00
1.28E+00
1.36E+00
1.32E+00
1.36E+00
1.28E+00
1.28E+00
1.36E+00
1.36E+00
1.32E+00
1.36E+00
1.32E+00
1.36E+00
1.32E+00
1.36E+00
1.32E+00
1.36E+00
1.28E+00
1.36E+00
1.32E+00
1.36E+00
1.32E+00
1.36E+00
1.28E+00
1.32E+00
1.28E+00
1.32E+00
1.28E+00
1.32E+00
1.28E+00
1.36E+00
1.32E+00
1.36E+00
1.32E+00
1.36E+00
1.28E+00
1.32E+00
1.28E+00
1.36E+00
1.28E+00
1.36E+00
1.32E+00
1.36E+00
1.32E+00
1.36E+00
1.28E+00
1.36E+00
1.28E+00
1.28E+00
1.36E+00
1.36E+00
1.32E+00
1.36E+00
1.32E+00
1.36E+00
1.32E+00
1.36E+00
1.32E+00
1.36E+00
1.32E+00
1.40E+00
1.32E+00
1.40E+00
1.32E+00
1.36E+00
1.32E+00
1.36E+00
1.32E+00
1.36E+00
1.32E+00
1.40E+00
1.32E+00
1.40E+00
1.32E+00
1.36E+00
1.32E+00
1.36E+00
1.28E+00
1.28E+00
1.36E+00
1.36E+00
1.28E+00
1.36E+00
1.32E+00
1.36E+00
1.28E+00
1.36E+00
1.28E+00
1.28E+00
1.36E+00
1.36E+00
1.32E+00
1.36E+00
1.32E+00
1.36E+00
1.28E+00
1.36E+00
1.28E+00
1.28E+00
1.36E+00
1.36E+00
1.32E+00
1.36E+00
1.32E+00
1.36E+00
1.32E+00
1.36E+00
1.32E+00
1.36E+00
1.32E+00
1.36E+00
1.32E+00
1.36E+00
1.32E+00
1.36E+00
1.28E+00
1.32E+00
1.28E+00
1.36E+00
1.28E+00
1.36E+00
1.32E+00
1.40E+00
1.32E+00
1.36E+00
1.32E+00
1.36E+00
1.32E+00
1.36E+00
1.32E+00
1.36E+00
1.32E+00
1.40E+00
1.32E+00
1.36E+00
1.28E+00
1.32E+00
1.28E+00
1.28E+00
1.36E+00
1.36E+00
1.32E+00
1.36E+00
1.32E+00
1.36E+00
1.28E+00
1.32E+00
1.28E+00
1.36E+00
1.28E+00
1.36E+00
1.32E+00
1.40E+00
1.32E+00
1.36E+00
1.32E+00
1.36E+00
1.32E+00
1.40E+00
1.32E+00
1.40E+00
1.32E+00
1.40E+00
1.32E+00
1.36E+00
1.32E+00
1.36E+00
1.28E+00
1.36E+00
1.28E+00
1.28E+00
1.36E+00
1.36E+00
1.28E+00
1.32E+00
1.28E+00
1.32E+00
1.28E+00
1.28E+00
1.36E+00
1.36E+00
1.32E+00
1.36E+00
1.36E+00
1.28E+00
1.32E+00
1.28E+00
1.28E+00
1.36E+00
1.36E+00
1.32E+00
1.32E+00
1.40E+00
1.40E+00
1.32E+00
1.36E+00
1.32E+00
1.36E+00
1.32E+00
1.40E+00
1.32E+00
1.40E+00
1.36E+00
1.40E+00
1.32E+00
1.36E+00
1.32E+00
1.36E+00
1.32E+00
1.40E+00
1.32E+00
1.40E+00
1.36E+00
1.40E+00
1.32E+00
1.36E+00
1.32E+00
1.36E+00
1.32E+00
1.40E+00
1.32E+00
1.40E+00
1.36E+00
1.40E+00
1.32E+00
1.36E+00
1.36E+00
1.32E+00
1.36E+00
1.32E+00
1.36E+00
1.32E+00
1.36E+00
1.28E+00
1.32E+00
1.28E+00
1.28E+00
1.24E+00
1.24E+00
1.32E+00
1.36E+00
1.28E+00
1.36E+00
1.28E+00
1.32E+00
1.28E+00
1.32E+00
1.24E+00
1.28E+00
1.24E+00
1.28E+00
1.24E+00
1.28E+00
1.20E+00
1.24E+00
1.20E+00
1.20E+00
1.28E+00
1.24E+00
1.32E+00
1.32E+00
1.44E+00
1.40E+00
1.56E+00
1.52E+00
1.68E+00
1.68E+00
1.84E+00
1.80E+00
2.00E+00
1.96E+00
2.08E+00
2.04E+00
1.84E+00
1.88E+00
1.68E+00
1.68E+00
1.52E+00
1.56E+00
1.40E+00
1.44E+00
1.36E+00
1.36E+00
1.24E+00
1.28E+00
1.16E+00
1.20E+00
1.12E+00
1.16E+00
1.12E+00
1.16E+00
1.12E+00
1.16E+00
1.08E+00
1.12E+00
1.08E+00
1.12E+00
1.04E+00
1.08E+00
1.16E+00
1.12E+00
1.20E+00
1.16E+00
1.24E+00
1.24E+00
1.16E+00
1.24E+00
1.20E+00
1.28E+00
1.20E+00
1.28E+00
1.24E+00
1.32E+00
1.28E+00
1.32E+00
1.24E+00
1.28E+00
1.24E+00
1.32E+00
1.28E+00
1.28E+00
1.36E+00
1.36E+00
1.28E+00
1.32E+00
1.28E+00
1.32E+00
1.28E+00
1.32E+00
1.28E+00
1.28E+00
1.36E+00
1.36E+00
1.32E+00
1.36E+00
1.28E+00
1.28E+00
1.36E+00
1.36E+00
1.36E+00
1.32E+00
1.40E+00
1.32E+00
1.40E+00
1.32E+00
1.36E+00
1.32E+00
1.36E+00
1.28E+00
1.36E+00
1.32E+00
1.32E+00
1.40E+00
1.40E+00
1.32E+00
1.36E+00
1.32E+00
1.40E+00
1.32E+00
1.44E+00
1.36E+00
1.44E+00
1.40E+00
1.44E+00
1.36E+00
1.40E+00
1.36E+00
1.44E+00
1.36E+00
1.44E+00
1.40E+00
1.44E+00
1.40E+00
1.44E+00
1.44E+00
1.36E+00
1.40E+00
1.36E+00
1.36E+00
1.44E+00
1.48E+00
1.40E+00
1.44E+00
1.40E+00
1.44E+00
1.36E+00
1.40E+00
1.36E+00
1.44E+00
1.36E+00
1.44E+00
1.40E+00
1.44E+00
1.40E+00
1.44E+00
1.36E+00
1.40E+00
1.36E+00
1.36E+00
1.44E+00
1.44E+00
1.40E+00
1.44E+00
1.40E+00
1.44E+00
1.32E+00
1.36E+00
1.32E+00
1.36E+00
1.32E+00
1.36E+00
1.32E+00
1.36E+00
1.28E+00
1.32E+00
1.24E+00
1.28E+00
1.24E+00
1.28E+00
1.24E+00
1.32E+00
1.24E+00
1.32E+00
1.24E+00
1.28E+00
1.24E+00
1.28E+00
1.24E+00
1.28E+00
1.24E+00
1.24E+00
1.32E+00
1.32E+00
1.24E+00
1.28E+00
1.24E+00
1.28E+00
1.20E+00
1.28E+00
1.24E+00
1.24E+00
1.32E+00
1.32E+00
1.24E+00
1.28E+00
1.24E+00
1.28E+00
1.24E+00
1.24E+00
1.32E+00
1.28E+00
1.36E+00
1.36E+00
1.32E+00
1.36E+00
1.28E+00
1.36E+00
1.28E+00
1.36E+00
1.32E+00
1.36E+00
1.32E+00
1.36E+00
1.32E+00
1.36E+00
1.28E+00
1.32E+00
1.28E+00
1.32E+00
1.28E+00
1.36E+00
1.28E+00
1.36E+00
1.28E+00
1.32E+00
1.28E+00
1.32E+00
1.28E+00
1.36E+00
1.28E+00
1.36E+00
1.32E+00
1.36E+00
1.32E+00
1.36E+00
1.28E+00
1.36E+00
1.28E+00
1.28E+00
1.36E+00
1.36E+00
1.32E+00
1.36E+00
1.32E+00
1.36E+00
1.28E+00
1.28E+00
1.36E+00
1.36E+00
1.28E+00
1.40E+00
1.32E+00
1.40E+00
1.32E+00
1.36E+00
1.32E+00
1.36E+00
1.28E+00
1.36E+00
1.28E+00
1.36E+00
1.32E+00
1.36E+00
1.32E+00
1.32E+00
1.28E+00
1.32E+00
1.32E+00
1.28E+00
1.28E+00
1.36E+00
1.36E+00
1.32E+00
1.36E+00
1.28E+00
1.36E+00
1.28E+00
1.36E+00
1.28E+00
1.36E+00
1.32E+00
1.40E+00
1.32E+00
1.40E+00
1.32E+00
1.36E+00
1.32E+00
1.36E+00
1.32E+00
1.40E+00
1.32E+00
1.40E+00
1.36E+00
1.40E+00
1.32E+00
1.36E+00
1.32E+00
1.36E+00
1.32E+00
1.36E+00
1.32E+00
1.36E+00
1.32E+00
1.36E+00
1.32E+00
1.36E+00
1.28E+00
1.32E+00
1.28E+00
1.28E+00
1.36E+00
1.36E+00
1.36E+00
1.32E+00
1.36E+00
1.28E+00
1.36E+00
1.28E+00
1.36E+00
1.32E+00
1.36E+00
1.32E+00
1.36E+00
1.32E+00
1.36E+00
1.32E+00
1.36E+00
1.28E+00
1.36E+00
1.32E+00
1.36E+00
1.32E+00
1.36E+00
1.32E+00
1.36E+00
1.32E+00
1.36E+00
1.32E+00
1.36E+00
1.32E+00
1.32E+00
1.40E+00
1.40E+00
1.36E+00
1.40E+00
1.32E+00
1.36E+00
1.36E+00
1.32E+00
1.36E+00
1.32E+00
1.36E+00
1.32E+00
1.36E+00
1.32E+00
1.36E+00
1.28E+00
1.36E+00
1.28E+00
1.36E+00
1.32E+00
1.36E+00
1.32E+00
1.36E+00
1.32E+00
1.36E+00
1.28E+00
1.36E+00
1.28E+00
1.36E+00
1.28E+00
1.36E+00
1.32E+00
1.36E+00
1.28E+00
1.32E+00
1.28E+00
1.32E+00
1.28E+00
1.36E+00
1.36E+00
1.32E+00
1.36E+00
1.32E+00
1.36E+00
1.32E+00
1.36E+00
1.32E+00
1.40E+00
1.32E+00
1.32E+00
1.40E+00
1.40E+00
1.36E+00
1.40E+00
1.32E+00
1.36E+00
1.32E+00
1.40E+00
1.32E+00
1.36E+00
1.44E+00
1.44E+00
1.40E+00
1.40E+00
1.36E+00
1.40E+00
1.32E+00
1.40E+00
1.32E+00
1.40E+00
1.36E+00
1.40E+00
1.32E+00
1.36E+00
1.32E+00
1.36E+00
1.28E+00
1.36E+00
1.28E+00
1.36E+00
1.28E+00
1.36E+00
1.32E+00
1.28E+00
1.28E+00
1.24E+00
1.28E+00
1.24E+00
1.24E+00
1.32E+00
1.32E+00
1.24E+00
1.28E+00
1.20E+00
1.24E+00
1.20E+00
1.16E+00
1.24E+00
1.20E+00
1.28E+00
1.24E+00
1.32E+00
1.28E+00
1.40E+00
1.36E+00
1.52E+00
1.48E+00
1.64E+00
1.64E+00
1.84E+00
1.84E+00
2.00E+00
2.04E+00
1.96E+00
2.00E+00
1.76E+00
1.80E+00
1.68E+00
1.72E+00
1.60E+00
1.60E+00
1.48E+00
1.48E+00
1.32E+00
1.36E+00
1.24E+00
1.28E+00
1.20E+00
1.24E+00
1.16E+00
1.20E+00
1.16E+00
1.20E+00
1.12E+00
1.16E+00
1.08E+00
1.16E+00
1.08E+00
1.16E+00
1.12E+00
1.20E+00
1.12E+00
1.20E+00
1.12E+00
1.20E+00
1.12E+00
1.20E+00
1.12E+00
1.24E+00
1.16E+00
1.20E+00
1.28E+00
1.28E+00
1.20E+00
1.28E+00
1.20E+00
1.28E+00
1.20E+00
1.24E+00
1.32E+00
1.28E+00
1.36E+00
1.36E+00
1.28E+00
1.32E+00
1.28E+00
1.32E+00
1.28E+00
1.36E+00
1.28E+00
1.36E+00
1.32E+00
1.36E+00
1.32E+00
1.36E+00
1.32E+00
1.36E+00
1.32E+00
1.32E+00
1.40E+00
1.40E+00
1.32E+00
1.40E+00
1.32E+00
1.36E+00
1.32E+00
1.36E+00
1.32E+00
1.40E+00
1.32E+00
1.40E+00
1.36E+00
1.40E+00
1.36E+00
1.32E+00
1.36E+00
1.32E+00
1.36E+00
1.32E+00
1.36E+00
1.32E+00
1.40E+00
1.32E+00
1.36E+00
1.32E+00
1.36E+00
1.32E+00
1.36E+00
1.32E+00
1.32E+00
1.44E+00
1.44E+00
1.40E+00
1.44E+00
1.40E+00
1.44E+00
1.40E+00
1.44E+00
1.40E+00
1.48E+00
1.40E+00
1.48E+00
1.40E+00
1.48E+00
1.40E+00
1.44E+00
1.40E+00
1.44E+00
1.40E+00
1.48E+00
1.40E+00
1.48E+00
1.40E+00
1.44E+00
1.40E+00
1.44E+00
1.40E+00
1.44E+00
1.40E+00
1.44E+00
1.40E+00
1.44E+00
1.36E+00
1.40E+00
1.32E+00
1.36E+00
1.32E+00
1.36E+00
1.28E+00
1.36E+00
1.32E+00
1.36E+00
1.28E+00
1.32E+00
1.24E+00
1.28E+00
1.24E+00
1.28E+00
1.24E+00
1.32E+00
1.24E+00
1.28E+00
1.24E+00
1.28E+00
1.24E+00
1.28E+00
1.20E+00
1.28E+00
1.24E+00
1.24E+00
1.32E+00
1.32E+00
1.28E+00
1.32E+00
1.24E+00
1.28E+00
1.24E+00
1.32E+00
1.24E+00
1.32E+00
1.28E+00
1.32E+00
1.28E+00
1.32E+00
1.24E+00
1.28E+00
1.24E+00
1.24E+00
1.32E+00
1.32E+00
1.28E+00
1.32E+00
1.28E+00
1.32E+00
1.24E+00
1.28E+00
1.24E+00
1.24E+00
1.32E+00
1.36E+00
1.28E+00
1.36E+00
1.32E+00
1.36E+00
1.28E+00
1.32E+00
1.36E+00
1.28E+00
1.36E+00
1.32E+00
1.36E+00
1.32E+00
1.36E+00
1.32E+00
1.36E+00
1.28E+00
1.32E+00
1.28E+00
1.28E+00
1.36E+00
1.36E+00
1.32E+00
1.36E+00
1.32E+00
1.36E+00
1.32E+00
1.36E+00
1.32E+00
1.36E+00
1.32E+00
1.40E+00
1.32E+00
1.40E+00
1.32E+00
1.36E+00
1.32E+00
1.36E+00
1.28E+00
1.36E+00
1.32E+00
1.36E+00
1.32E+00
1.36E+00
1.32E+00
1.36E+00
1.28E+00
1.36E+00
1.28E+00
1.36E+00
1.32E+00
1.36E+00
1.32E+00
1.36E+00
1.32E+00
1.36E+00
1.28E+00
1.32E+00
1.28E+00
1.28E+00
1.36E+00
1.36E+00
1.32E+00
1.36E+00
1.32E+00
1.36E+00
1.28E+00
1.36E+00
1.28E+00
1.36E+00
1.32E+00
1.36E+00
1.32E+00
1.36E+00
1.32E+00
1.36E+00
1.32E+00
1.28E+00
1.36E+00
1.28E+00
1.36E+00
1.32E+00
1.36E+00
1.32E+00
1.36E+00
1.32E+00
1.36E+00
1.32E+00
1.36E+00
1.32E+00
1.40E+00
1.36E+00
1.40E+00
1.32E+00
1.36E+00
1.32E+00
1.36E+00
1.32E+00
1.36E+00
1.32E+00
1.36E+00
1.32E+00
1.36E+00
1.32E+00
1.36E+00
1.32E+00
1.36E+00
1.28E+00
1.36E+00
1.28E+00
1.36E+00
1.32E+00
1.36E+00
1.32E+00
1.36E+00
1.28E+00
1.32E+00
1.28E+00
1.36E+00
1.28E+00
1.36E+00
1.32E+00
1.36E+00
1.32E+00
1.36E+00
1.32E+00
1.36E+00
1.32E+00
1.36E+00
1.32E+00
1.36E+00
1.32E+00
1.36E+00
1.32E+00
1.36E+00
1.32E+00
1.36E+00
1.28E+00
1.28E+00
1.36E+00
1.36E+00
1.32E+00
1.40E+00
1.32E+00
1.36E+00
1.32E+00
1.36E+00
1.32E+00
1.36E+00
1.32E+00
1.36E+00
1.32E+00
1.36E+00
1.32E+00
1.36E+00
1.32E+00
1.36E+00
1.28E+00
1.36E+00
1.28E+00
1.36E+00
1.32E+00
1.36E+00
1.32E+00
1.36E+00
1.32E+00
1.36E+00
1.28E+00
1.28E+00
1.36E+00
1.36E+00
1.32E+00
1.36E+00
1.32E+00
1.36E+00
1.32E+00
1.36E+00
1.28E+00
1.36E+00
1.28E+00
1.36E+00
1.32E+00
1.40E+00
1.32E+00
1.36E+00
1.32E+00
1.36E+00
1.32E+00
1.36E+00
1.32E+00
1.32E+00
1.40E+00
1.40E+00
1.36E+00
1.40E+00
1.32E+00
1.36E+00
1.32E+00
1.40E+00
1.32E+00
1.36E+00
1.44E+00
1.44E+00
1.40E+00
1.44E+00
1.36E+00
1.40E+00
1.36E+00
1.32E+00
1.40E+00
1.40E+00
1.36E+00
1.40E+00
1.36E+00
1.36E+00
1.32E+00
1.36E+00
1.28E+00
1.32E+00
1.28E+00
1.32E+00
1.28E+00
1.32E+00
1.28E+00
1.32E+00
1.24E+00
1.28E+00
1.24E+00
1.28E+00
1.24E+00
1.28E+00
1.24E+00
1.28E+00
1.24E+00
1.28E+00
1.16E+00
1.20E+00
1.16E+00
1.16E+00
1.24E+00
1.20E+00
1.32E+00
1.28E+00
1.40E+00
1.36E+00
1.52E+00
1.48E+00
1.68E+00
1.64E+00
1.92E+00
1.88E+00
2.16E+00
2.20E+00
2.12E+00
2.12E+00
1.88E+00
1.92E+00
1.68E+00
1.72E+00
1.60E+00
1.64E+00
1.48E+00
1.48E+00
1.36E+00
1.40E+00
1.24E+00
1.28E+00
1.20E+00
1.20E+00
1.16E+00
1.20E+00
1.12E+00
1.16E+00
1.12E+00
1.16E+00
1.08E+00
1.12E+00
1.08E+00
1.12E+00
1.08E+00
1.08E+00
1.16E+00
1.16E+00
1.12E+00
1.16E+00
1.12E+00
1.20E+00
1.12E+00
1.12E+00
1.24E+00
1.28E+00
1.20E+00
1.20E+00
1.28E+00
1.28E+00
1.20E+00
1.28E+00
1.20E+00
1.24E+00
1.32E+00
1.28E+00
1.36E+00
1.36E+00
1.32E+00
1.36E+00
1.28E+00
1.36E+00
1.28E+00
1.28E+00
1.36E+00
1.36E+00
1.32E+00
1.36E+00
1.32E+00
1.36E+00
1.28E+00
1.36E+00
1.28E+00
1.36E+00
1.32E+00
1.36E+00
1.32E+00
1.40E+00
1.32E+00
1.36E+00
1.32E+00
1.36E+00
1.32E+00
1.36E+00
1.32E+00
1.40E+00
1.32E+00
1.40E+00
1.36E+00
1.40E+00
1.32E+00
1.36E+00
1.32E+00
1.32E+00
1.40E+00
1.40E+00
1.36E+00
1.40E+00
1.36E+00
1.40E+00
1.32E+00
1.36E+00
1.32E+00
1.32E+00
1.40E+00
1.40E+00
1.36E+00
1.40E+00
1.36E+00
1.40E+00
1.36E+00
1.40E+00
1.36E+00
1.44E+00
1.36E+00
1.44E+00
1.40E+00
1.48E+00
1.40E+00
1.44E+00
1.40E+00
1.44E+00
1.40E+00
1.44E+00
1.40E+00
1.48E+00
1.40E+00
1.48E+00
1.40E+00
1.44E+00
1.36E+00
1.40E+00
1.36E+00
1.44E+00
1.36E+00
1.44E+00
1.40E+00
1.44E+00
1.40E+00
1.44E+00
1.36E+00
1.40E+00
1.32E+00
1.36E+00
1.32E+00
1.36E+00
1.32E+00
1.36E+00
1.32E+00
1.32E+00
1.24E+00
1.28E+00
1.24E+00
1.28E+00
1.24E+00
1.28E+00
1.24E+00
1.28E+00
1.24E+00
1.28E+00
1.20E+00
1.28E+00
1.20E+00
1.20E+00
1.28E+00
1.28E+00
1.24E+00
1.28E+00
1.24E+00
1.28E+00
1.24E+00
1.28E+00
1.24E+00
1.28E+00
1.24E+00
1.32E+00
1.24E+00
1.32E+00
1.28E+00
1.32E+00
1.28E+00
1.32E+00
1.24E+00
1.32E+00
1.28E+00
1.28E+00
1.36E+00
1.36E+00
1.32E+00
1.36E+00
1.28E+00
1.32E+00
1.28E+00
1.32E+00
1.28E+00
1.28E+00
1.36E+00
1.36E+00
1.28E+00
1.32E+00
1.28E+00
1.32E+00
1.28E+00
1.36E+00
1.28E+00
1.36E+00
1.32E+00
1.36E+00
1.32E+00
1.36E+00
1.28E+00
1.32E+00
1.28E+00
1.32E+00
1.28E+00
1.28E+00
1.36E+00
1.36E+00
1.32E+00
1.36E+00
1.28E+00
1.36E+00
1.28E+00
1.36E+00
1.32E+00
1.40E+00
1.32E+00
1.40E+00
1.32E+00
1.36E+00
1.32E+00
1.36E+00
1.32E+00
1.36E+00
1.32E+00
1.32E+00
1.40E+00
1.40E+00
1.32E+00
1.36E+00
1.32E+00
1.36E+00
1.32E+00
1.36E+00
1.32E+00
1.36E+00
1.32E+00
1.36E+00
1.32E+00
1.36E+00
1.32E+00
1.36E+00
1.28E+00
1.36E+00
1.28E+00
1.36E+00
1.32E+00
1.36E+00
1.32E+00
1.36E+00
1.28E+00
1.32E+00
1.28E+00
1.28E+00
1.36E+00
1.36E+00
1.28E+00
1.36E+00
1.32E+00
1.36E+00
1.28E+00
1.32E+00
1.28E+00
1.28E+00
1.36E+00
1.36E+00
1.40E+00
1.32E+00
1.36E+00
1.32E+00
1.36E+00
1.32E+00
1.36E+00
1.32E+00
1.40E+00
1.32E+00
1.40E+00
1.36E+00
1.40E+00
1.32E+00
1.36E+00
1.32E+00
1.36E+00
1.32E+00
1.36E+00
1.32E+00
1.36E+00
1.32E+00
1.36E+00
1.32E+00
1.36E+00
1.28E+00
1.32E+00
1.28E+00
1.36E+00
1.28E+00
1.36E+00
1.32E+00
1.36E+00
1.32E+00
1.36E+00
1.28E+00
1.32E+00
1.28E+00
1.28E+00
1.36E+00
1.36E+00
1.32E+00
1.36E+00
1.36E+00
1.32E+00
1.36E+00
1.28E+00
1.36E+00
1.32E+00
1.40E+00
1.32E+00
1.40E+00
1.32E+00
1.36E+00
1.32E+00
1.36E+00
1.32E+00
1.36E+00
1.32E+00
1.40E+00
1.32E+00
1.40E+00
1.36E+00
1.40E+00
1.32E+00
1.36E+00
1.32E+00
1.36E+00
1.32E+00
1.36E+00
1.32E+00
1.36E+00
1.32E+00
1.36E+00
1.28E+00
1.36E+00
1.28E+00
1.32E+00
1.28E+00
1.36E+00
1.28E+00
1.36E+00
1.28E+00
1.32E+00
1.28E+00
1.32E+00
1.24E+00
1.24E+00
1.36E+00
1.36E+00
1.32E+00
1.36E+00
1.32E+00
1.36E+00
1.32E+00
1.36E+00
1.32E+00
1.40E+00
1.32E+00
1.40E+00
1.36E+00
1.44E+00
1.36E+00
1.40E+00
1.32E+00
1.36E+00
1.32E+00
1.36E+00
1.32E+00
1.40E+00
1.32E+00
1.40E+00
1.36E+00
1.40E+00
1.32E+00
1.40E+00
1.32E+00
1.40E+00
1.32E+00
1.40E+00
1.36E+00
1.40E+00
1.32E+00
1.40E+00
1.32E+00
1.36E+00
1.32E+00
1.36E+00
1.32E+00
1.36E+00
1.32E+00
1.36E+00
1.32E+00
1.32E+00
1.24E+00
1.28E+00
1.24E+00
1.24E+00
1.32E+00
1.36E+00
1.28E+00
1.36E+00
1.28E+00
1.32E+00
1.24E+00
1.28E+00
1.20E+00
1.28E+00
1.20E+00
1.24E+00
1.20E+00
1.24E+00
1.24E+00
1.20E+00
1.20E+00
1.32E+00
1.28E+00
1.44E+00
1.40E+00
1.60E+00
1.60E+00
1.80E+00
1.76E+00
1.96E+00
2.00E+00
1.96E+00
2.04E+00
1.96E+00
2.00E+00
1.80E+00
1.84E+00
1.68E+00
1.68E+00
1.52E+00
1.56E+00
1.36E+00
1.40E+00
1.28E+00
1.32E+00
1.24E+00
1.28E+00
1.20E+00
1.20E+00
1.12E+00
1.16E+00
1.08E+00
1.12E+00
1.12E+00
1.08E+00
1.16E+00
1.12E+00
1.16E+00
1.12E+00
1.16E+00
1.12E+00
1.16E+00
1.12E+00
1.20E+00
1.12E+00
1.16E+00
1.24E+00
1.24E+00
1.20E+00
1.24E+00
1.20E+00
1.24E+00
1.20E+00
1.20E+00
1.28E+00
1.28E+00
1.24E+00
1.32E+00
1.24E+00
1.28E+00
1.24E+00
1.28E+00
1.24E+00
1.24E+00
1.32E+00
1.36E+00
1.36E+00
1.28E+00
1.36E+00
1.32E+00
1.36E+00
1.28E+00
1.36E+00
1.32E+00
1.36E+00
1.32E+00
1.32E+00
1.40E+00
1.40E+00
1.32E+00
1.36E+00
1.32E+00
1.36E+00
1.32E+00
1.40E+00
1.32E+00
1.40E+00
1.36E+00
1.40E+00
1.32E+00
1.40E+00
1.32E+00
1.36E+00
1.32E+00
1.40E+00
1.32E+00
1.40E+00
1.36E+00
1.40E+00
1.36E+00
1.40E+00
1.32E+00
1.40E+00
1.32E+00
1.40E+00
1.36E+00
1.36E+00
1.44E+00
1.44E+00
1.36E+00
1.40E+00
1.32E+00
1.40E+00
1.36E+00
1.36E+00
1.44E+00
1.44E+00
1.40E+00
1.44E+00
1.40E+00
1.40E+00
1.36E+00
1.40E+00
1.36E+00
1.44E+00
1.36E+00
1.44E+00
1.40E+00
1.44E+00
1.40E+00
1.44E+00
1.40E+00
1.44E+00
1.40E+00
1.48E+00
1.40E+00
1.48E+00
1.40E+00
1.44E+00
1.40E+00
1.44E+00
1.44E+00
1.36E+00
1.40E+00
1.36E+00
1.40E+00
1.36E+00
1.40E+00
1.32E+00
1.36E+00
1.32E+00
1.36E+00
1.28E+00
1.32E+00
1.28E+00
1.32E+00
1.28E+00
1.28E+00
1.24E+00
1.28E+00
1.20E+00
1.24E+00
1.20E+00
1.28E+00
1.20E+00
1.28E+00
1.20E+00
1.28E+00
1.24E+00
1.28E+00
1.20E+00
1.28E+00
1.20E+00
1.28E+00
1.20E+00
1.28E+00
1.28E+00
1.24E+00
1.28E+00
1.24E+00
1.28E+00
1.20E+00
1.28E+00
1.20E+00
1.32E+00
1.24E+00
1.32E+00
1.28E+00
1.32E+00
1.28E+00
1.32E+00
1.24E+00
1.32E+00
1.24E+00
1.36E+00
1.28E+00
1.36E+00
1.32E+00
1.36E+00
1.32E+00
1.36E+00
1.28E+00
1.32E+00
1.28E+00
1.28E+00
1.36E+00
1.36E+00
1.32E+00
1.36E+00
1.36E+00
1.28E+00
1.32E+00
1.28E+00
1.28E+00
1.36E+00
1.36E+00
1.32E+00
1.36E+00
1.32E+00
1.36E+00
1.32E+00
1.36E+00
1.32E+00
1.36E+00
1.32E+00
1.40E+00
1.32E+00
1.40E+00
1.32E+00
1.40E+00
1.32E+00
1.36E+00
1.32E+00
1.36E+00
1.32E+00
1.36E+00
1.32E+00
1.36E+00
1.32E+00
1.36E+00
1.32E+00
1.36E+00
1.28E+00
1.28E+00
1.36E+00
1.36E+00
1.32E+00
1.36E+00
1.32E+00
1.36E+00
1.36E+00
1.28E+00
1.32E+00
1.28E+00
1.36E+00
1.28E+00
1.36E+00
1.32E+00
1.36E+00
1.32E+00
1.36E+00
1.32E+00
1.36E+00
1.32E+00
1.40E+00
1.32E+00
1.32E+00
1.40E+00
1.40E+00
1.32E+00
1.36E+00
1.32E+00
1.36E+00
1.32E+00
1.40E+00
1.32E+00
1.36E+00
1.32E+00
1.36E+00
1.32E+00
1.36E+00
1.28E+00
1.36E+00
1.28E+00
1.36E+00
1.32E+00
1.36E+00
1.32E+00
1.36E+00
1.32E+00
1.36E+00
1.28E+00
1.32E+00
1.28E+00
1.36E+00
1.28E+00
1.36E+00
1.32E+00
1.36E+00
1.28E+00
1.36E+00
1.28E+00
1.32E+00
1.28E+00
1.36E+00
1.28E+00
1.36E+00
1.32E+00
1.36E+00
1.32E+00
1.36E+00
1.32E+00
1.36E+00
1.32E+00
1.36E+00
1.32E+00
1.40E+00
1.32E+00
1.40E+00
1.40E+00
1.32E+00
1.36E+00
1.32E+00
1.36E+00
1.32E+00
1.40E+00
1.32E+00
1.40E+00
1.32E+00
1.36E+00
1.32E+00
1.36E+00
1.28E+00
1.32E+00
1.28E+00
1.36E+00
1.32E+00
1.36E+00
1.32E+00
1.36E+00
1.28E+00
1.32E+00
1.28E+00
1.36E+00
1.28E+00
1.36E+00
1.32E+00
1.36E+00
1.32E+00
1.36E+00
1.32E+00
1.32E+00
1.28E+00
1.28E+00
1.36E+00
1.28E+00
1.36E+00
1.36E+00
1.32E+00
1.36E+00
1.32E+00
1.36E+00
1.32E+00
1.36E+00
1.32E+00
1.32E+00
1.40E+00
1.40E+00
1.32E+00
1.36E+00
1.32E+00
1.36E+00
1.32E+00
1.36E+00
1.32E+00
1.36E+00
1.32E+00
1.36E+00
1.32E+00
1.36E+00
1.32E+00
1.36E+00
1.28E+00
1.28E+00
1.36E+00
1.40E+00
1.32E+00
1.40E+00
1.36E+00
1.40E+00
1.36E+00
1.40E+00
1.32E+00
1.40E+00
1.36E+00
1.44E+00
1.40E+00
1.44E+00
1.36E+00
1.40E+00
1.32E+00
1.36E+00
1.32E+00
1.36E+00
1.32E+00
1.36E+00
1.32E+00
1.36E+00
1.32E+00
1.36E+00
1.28E+00
1.32E+00
1.24E+00
1.24E+00
1.32E+00
1.32E+00
1.28E+00
1.32E+00
1.28E+00
1.28E+00
1.24E+00
1.28E+00
1.20E+00
1.24E+00
1.16E+00
1.24E+00
1.16E+00
1.28E+00
1.20E+00
1.24E+00
1.32E+00
1.28E+00
1.44E+00
1.40E+00
1.60E+00
1.56E+00
1.80E+00
1.76E+00
1.92E+00
1.88E+00
2.00E+00
1.96E+00
1.80E+00
1.84E+00
1.68E+00
1.72E+00
1.60E+00
1.64E+00
1.48E+00
1.52E+00
1.36E+00
1.40E+00
1.28E+00
1.28E+00
1.20E+00
1.24E+00
1.16E+00
1.20E+00
1.12E+00
1.16E+00
1.08E+00
1.12E+00
1.08E+00
1.12E+00
1.08E+00
1.16E+00
1.08E+00
1.16E+00
1.12E+00
1.16E+00
1.12E+00
1.16E+00
1.12E+00
1.12E+00
1.20E+00
1.16E+00
1.28E+00
1.28E+00
1.20E+00
1.28E+00
1.20E+00
1.28E+00
1.20E+00
1.28E+00
1.24E+00
1.28E+00
1.36E+00
1.36E+00
1.28E+00
1.36E+00
1.28E+00
1.32E+00
1.28E+00
1.28E+00
1.36E+00
1.36E+00
1.32E+00
1.36E+00
1.32E+00
1.36E+00
1.28E+00
1.32E+00
1.28E+00
1.32E+00
1.28E+00
1.28E+00
1.36E+00
1.36E+00
1.32E+00
1.36E+00
1.28E+00
1.32E+00
1.28E+00
1.28E+00
1.36E+00
1.36E+00
1.32E+00
1.36E+00
1.32E+00
1.36E+00
1.32E+00
1.36E+00
1.32E+00
1.36E+00
1.32E+00
1.40E+00
1.32E+00
1.40E+00
1.36E+00
1.40E+00
1.32E+00
1.40E+00
1.32E+00
1.32E+00
1.40E+00
1.44E+00
1.36E+00
1.44E+00
1.40E+00
1.44E+00
1.40E+00
1.44E+00
1.40E+00
1.44E+00
1.40E+00
1.44E+00
1.40E+00
1.44E+00
1.40E+00
1.44E+00
1.36E+00
1.40E+00
1.36E+00
1.40E+00
1.32E+00
1.36E+00
1.44E+00
1.44E+00
1.40E+00
1.44E+00
1.36E+00
1.40E+00
1.36E+00
1.36E+00
1.44E+00
1.44E+00
1.40E+00
1.44E+00
1.40E+00
1.44E+00
1.36E+00
1.40E+00
1.32E+00
1.40E+00
1.32E+00
1.40E+00
1.36E+00
1.40E+00
1.32E+00
1.36E+00
1.28E+00
1.32E+00
1.28E+00
1.32E+00
1.28E+00
1.32E+00
1.28E+00
1.32E+00
1.28E+00
1.32E+00
1.24E+00
1.28E+00
1.20E+00
1.28E+00
1.20E+00
1.28E+00
1.20E+00
1.28E+00
1.24E+00
1.28E+00
1.20E+00
1.28E+00
1.20E+00
1.28E+00
1.20E+00
1.24E+00
1.32E+00
1.32E+00
1.28E+00
1.32E+00
1.28E+00
1.28E+00
1.24E+00
1.32E+00
1.32E+00
1.28E+00
1.32E+00
1.28E+00
1.32E+00
1.28E+00
1.32E+00
1.24E+00
1.28E+00
1.24E+00
1.32E+00
1.24E+00
1.36E+00
1.28E+00
1.36E+00
1.32E+00
1.32E+00
1.28E+00
1.32E+00
1.28E+00
1.28E+00
1.40E+00
1.36E+00
1.32E+00
1.36E+00
1.32E+00
1.36E+00
1.32E+00
1.36E+00
1.28E+00
1.36E+00
1.32E+00
1.36E+00
1.32E+00
1.36E+00
1.32E+00
1.36E+00
1.28E+00
1.32E+00
1.28E+00
1.36E+00
1.28E+00
1.36E+00
1.32E+00
1.36E+00
1.32E+00
1.36E+00
1.32E+00
1.36E+00
1.32E+00
1.36E+00
1.32E+00
1.40E+00
1.32E+00
1.40E+00
1.32E+00
1.36E+00
1.32E+00
1.36E+00
1.32E+00
1.36E+00
1.32E+00
1.36E+00
1.32E+00
1.36E+00
1.32E+00
1.36E+00
1.28E+00
1.32E+00
1.28E+00
1.36E+00
1.28E+00
1.36E+00
1.32E+00
1.36E+00
1.32E+00
1.36E+00
1.28E+00
1.32E+00
1.28E+00
1.28E+00
1.36E+00
1.36E+00
1.32E+00
1.36E+00
1.32E+00
1.36E+00
1.32E+00
1.36E+00
1.28E+00
1.36E+00
1.32E+00
1.36E+00
1.32E+00
1.36E+00
1.32E+00
1.36E+00
1.28E+00
1.28E+00
1.36E+00
1.36E+00
1.32E+00
1.36E+00
1.32E+00
1.36E+00
1.32E+00
1.36E+00
1.36E+00
1.28E+00
1.36E+00
1.32E+00
1.36E+00
1.32E+00
1.36E+00
1.32E+00
1.36E+00
1.32E+00
1.36E+00
1.28E+00
1.36E+00
1.28E+00
1.36E+00
1.32E+00
1.36E+00
1.32E+00
1.36E+00
1.32E+00
1.36E+00
1.28E+00
1.36E+00
1.32E+00
1.36E+00
1.32E+00
1.36E+00
1.32E+00
1.36E+00
1.28E+00
1.36E+00
1.28E+00
1.36E+00
1.28E+00
1.36E+00
1.32E+00
1.36E+00
1.36E+00
1.32E+00
1.36E+00
1.28E+00
1.32E+00
1.28E+00
1.28E+00
1.36E+00
1.36E+00
1.32E+00
1.36E+00
1.32E+00
1.36E+00
1.28E+00
1.32E+00
1.28E+00
1.36E+00
1.32E+00
1.32E+00
1.40E+00
1.40E+00
1.32E+00
1.36E+00
1.32E+00
1.36E+00
1.32E+00
1.36E+00
1.32E+00
1.36E+00
1.32E+00
1.36E+00
1.32E+00
1.36E+00
1.36E+00
1.32E+00
1.36E+00
1.32E+00
1.32E+00
1.40E+00
1.40E+00
1.32E+00
1.40E+00
1.32E+00
1.36E+00
1.32E+00
1.32E+00
1.40E+00
1.40E+00
1.36E+00
1.44E+00
1.36E+00
1.40E+00
1.36E+00
1.40E+00
1.32E+00
1.40E+00
1.32E+00
1.40E+00
1.32E+00
1.40E+00
1.32E+00
1.36E+00
1.28E+00
1.32E+00
1.28E+00
1.24E+00
1.32E+00
1.32E+00
1.28E+00
1.36E+00
1.28E+00
1.32E+00
1.24E+00
1.28E+00
1.28E+00
1.24E+00
1.24E+00
1.32E+00
1.32E+00
1.28E+00
1.28E+00
1.20E+00
1.24E+00
1.16E+00
1.20E+00
1.16E+00
1.16E+00
1.28E+00
1.24E+00
1.36E+00
1.32E+00
1.44E+00
1.40E+00
1.56E+00
1.52E+00
1.72E+00
1.72E+00
2.00E+00
1.96E+00
2.12E+00
2.08E+00
1.96E+00
2.00E+00
1.76E+00
1.80E+00
1.60E+00
1.64E+00
1.60E+00
1.48E+00
1.48E+00
1.36E+00
1.40E+00
1.24E+00
1.28E+00
1.16E+00
1.20E+00
1.12E+00
1.16E+00
1.12E+00
1.16E+00
1.08E+00
1.12E+00
1.08E+00
1.12E+00
1.08E+00
1.08E+00
1.16E+00
1.20E+00
1.12E+00
1.20E+00
1.16E+00
1.20E+00
1.16E+00
1.20E+00
1.16E+00
1.24E+00
1.16E+00
1.28E+00
1.20E+00
1.28E+00
1.20E+00
1.28E+00
1.28E+00
1.20E+00
1.28E+00
1.24E+00
1.32E+00
1.24E+00
1.32E+00
1.28E+00
1.32E+00
1.28E+00
1.32E+00
1.24E+00
1.24E+00
1.32E+00
1.32E+00
1.24E+00
1.28E+00
1.36E+00
1.36E+00
1.28E+00
1.36E+00
1.28E+00
1.36E+00
1.28E+00
1.36E+00
1.32E+00
1.40E+00
1.32E+00
1.40E+00
1.32E+00
1.36E+00
1.32E+00
1.36E+00
1.32E+00
1.40E+00
1.32E+00
1.40E+00
1.32E+00
1.40E+00
1.36E+00
1.40E+00
1.36E+00
1.32E+00
1.36E+00
1.32E+00
1.40E+00
1.32E+00
1.40E+00
1.36E+00
1.40E+00
1.32E+00
1.36E+00
1.32E+00
1.40E+00
1.32E+00
1.44E+00
1.36E+00
1.44E+00
1.40E+00
1.44E+00
1.36E+00
1.44E+00
1.36E+00
1.44E+00
1.40E+00
1.44E+00
1.40E+00
1.44E+00
1.40E+00
1.44E+00
1.40E+00
1.44E+00
1.40E+00
1.44E+00
1.40E+00
1.44E+00
1.40E+00
1.48E+00
1.40E+00
1.44E+00
1.40E+00
1.44E+00
1.40E+00
1.44E+00
1.40E+00
1.44E+00
1.40E+00
1.44E+00
1.40E+00
1.44E+00
1.36E+00
1.40E+00
1.32E+00
1.36E+00
1.32E+00
1.36E+00
1.28E+00
1.36E+00
1.32E+00
1.36E+00
1.28E+00
1.32E+00
1.24E+00
1.28E+00
1.24E+00
1.28E+00
1.24E+00
1.28E+00
1.24E+00
1.28E+00
1.20E+00
1.24E+00
1.20E+00
1.20E+00
1.28E+00
1.20E+00
1.28E+00
1.28E+00
1.24E+00
1.28E+00
1.24E+00
1.28E+00
1.20E+00
1.28E+00
1.20E+00
1.32E+00
1.24E+00
1.32E+00
1.28E+00
1.32E+00
1.28E+00
1.32E+00
1.24E+00
1.32E+00
1.28E+00
1.28E+00
1.36E+00
1.36E+00
1.32E+00
1.36E+00
1.32E+00
1.36E+00
1.28E+00
1.32E+00
1.28E+00
1.28E+00
1.36E+00
1.36E+00
1.32E+00
1.36E+00
1.36E+00
1.28E+00
1.36E+00
1.28E+00
1.36E+00
1.32E+00
1.36E+00
1.32E+00
1.36E+00
1.32E+00
1.32E+00
1.28E+00
1.32E+00
1.28E+00
1.36E+00
1.28E+00
1.36E+00
1.32E+00
1.36E+00
1.28E+00
1.32E+00
1.28E+00
1.36E+00
1.28E+00
1.36E+00
1.32E+00
1.40E+00
1.32E+00
1.40E+00
1.32E+00
1.36E+00
1.32E+00
1.36E+00
1.32E+00
1.36E+00
1.32E+00
1.36E+00
1.32E+00
1.36E+00
1.32E+00
1.36E+00
1.28E+00
1.36E+00
1.28E+00
1.36E+00
1.32E+00
1.36E+00
1.32E+00
1.40E+00
1.32E+00
1.36E+00
1.32E+00
1.36E+00
1.32E+00
1.36E+00
1.32E+00
1.36E+00
1.32E+00
1.36E+00
1.32E+00
1.36E+00
1.28E+00
1.28E+00
1.36E+00
1.36E+00
1.32E+00
1.40E+00
1.40E+00
1.32E+00
1.36E+00
1.32E+00
1.36E+00
1.28E+00
1.36E+00
1.28E+00
1.28E+00
1.36E+00
1.36E+00
1.32E+00
1.36E+00
1.32E+00
1.36E+00
1.32E+00
1.28E+00
1.36E+00
1.36E+00
1.32E+00
1.36E+00
1.32E+00
1.36E+00
1.28E+00
1.32E+00
1.28E+00
1.28E+00
1.36E+00
1.36E+00
1.32E+00
1.36E+00
1.32E+00
1.36E+00
1.32E+00
1.36E+00
1.36E+00
1.28E+00
1.36E+00
1.32E+00
1.36E+00
1.32E+00
1.36E+00
1.32E+00
1.36E+00
1.28E+00
1.32E+00
1.28E+00
1.36E+00
1.28E+00
1.36E+00
1.32E+00
1.36E+00
1.32E+00
1.36E+00
1.32E+00
1.36E+00
1.32E+00
1.36E+00
1.32E+00
1.36E+00
1.32E+00
1.36E+00
1.32E+00
1.36E+00
1.28E+00
1.32E+00
1.28E+00
1.32E+00
1.28E+00
1.36E+00
1.32E+00
1.36E+00
1.32E+00
1.36E+00
1.28E+00
1.36E+00
1.36E+00
1.32E+00
1.40E+00
1.32E+00
1.40E+00
1.36E+00
1.40E+00
1.32E+00
1.36E+00
1.32E+00
1.36E+00
1.32E+00
1.36E+00
1.32E+00
1.40E+00
1.32E+00
1.36E+00
1.32E+00
1.36E+00
1.32E+00
1.36E+00
1.32E+00
1.40E+00
1.32E+00
1.40E+00
1.36E+00
1.40E+00
1.32E+00
1.36E+00
1.32E+00
1.36E+00
1.32E+00
1.40E+00
1.40E+00
1.36E+00
1.40E+00
1.32E+00
1.36E+00
1.32E+00
1.36E+00
1.32E+00
1.36E+00
1.32E+00
1.36E+00
1.32E+00
1.36E+00
1.28E+00
1.32E+00
1.24E+00
1.28E+00
1.24E+00
1.28E+00
1.24E+00
1.24E+00
1.32E+00
1.32E+00
1.28E+00
1.32E+00
1.28E+00
1.28E+00
1.24E+00
1.28E+00
1.24E+00
1.28E+00
1.24E+00
1.28E+00
1.20E+00
1.28E+00
1.20E+00
1.24E+00
1.24E+00
1.40E+00
1.36E+00
1.56E+00
1.52E+00
1.68E+00
1.68E+00
1.84E+00
1.80E+00
2.00E+00
1.96E+00
2.08E+00
2.08E+00
1.96E+00
2.00E+00
1.76E+00
1.76E+00
1.60E+00
1.60E+00
1.44E+00
1.48E+00
1.32E+00
1.36E+00
1.24E+00
1.28E+00
1.20E+00
1.20E+00
1.12E+00
1.16E+00
1.08E+00
1.12E+00
1.08E+00
1.16E+00
1.08E+00
1.16E+00
1.08E+00
1.16E+00
1.08E+00
1.12E+00
1.08E+00
1.08E+00
1.16E+00
1.12E+00
1.20E+00
1.24E+00
1.16E+00
1.24E+00
1.20E+00
1.28E+00
1.20E+00
1.28E+00
1.20E+00
1.24E+00
1.32E+00
1.32E+00
1.28E+00
1.32E+00
1.28E+00
1.32E+00
1.28E+00
1.32E+00
1.28E+00
1.28E+00
1.36E+00
1.36E+00
1.32E+00
1.36E+00
1.28E+00
1.32E+00
1.28E+00
1.32E+00
1.28E+00
1.28E+00
1.36E+00
1.36E+00
1.36E+00
1.32E+00
1.36E+00
1.28E+00
1.36E+00
1.28E+00
1.36E+00
1.32E+00
1.32E+00
1.40E+00
1.40E+00
1.32E+00
1.40E+00
1.32E+00
1.36E+00
1.32E+00
1.40E+00
1.32E+00
1.40E+00
1.36E+00
1.40E+00
1.36E+00
1.40E+00
1.36E+00
1.40E+00
1.32E+00
1.40E+00
1.36E+00
1.44E+00
1.40E+00
1.44E+00
1.40E+00
1.40E+00
1.36E+00
1.40E+00
1.36E+00
1.36E+00
1.44E+00
1.44E+00
1.40E+00
1.44E+00
1.40E+00
1.44E+00
1.40E+00
1.44E+00
1.40E+00
1.44E+00
1.40E+00
1.44E+00
1.40E+00
1.44E+00
1.40E+00
1.44E+00
1.40E+00
1.44E+00
1.40E+00
1.44E+00
1.40E+00
1.48E+00
1.40E+00
1.48E+00
1.40E+00
1.44E+00
1.40E+00
1.44E+00
1.36E+00
1.44E+00
1.36E+00
1.44E+00
1.36E+00
1.40E+00
1.32E+00
1.36E+00
1.28E+00
1.32E+00
1.28E+00
1.32E+00
1.28E+00
1.32E+00
1.28E+00
1.32E+00
1.24E+00
1.28E+00
1.24E+00
1.28E+00
1.20E+00
1.28E+00
1.24E+00
1.24E+00
1.32E+00
1.32E+00
1.24E+00
1.28E+00
1.24E+00
1.28E+00
1.20E+00
1.28E+00
1.20E+00
1.24E+00
1.32E+00
1.32E+00
1.24E+00
1.28E+00
1.24E+00
1.28E+00
1.24E+00
1.24E+00
1.32E+00
1.32E+00
1.28E+00
1.32E+00
1.28E+00
1.32E+00
1.24E+00
1.28E+00
1.24E+00
1.32E+00
1.28E+00
1.32E+00
1.28E+00
1.32E+00
1.28E+00
1.32E+00
1.24E+00
1.24E+00
1.32E+00
1.28E+00
1.36E+00
1.36E+00
1.32E+00
1.36E+00
1.32E+00
1.36E+00
1.32E+00
1.36E+00
1.28E+00
1.36E+00
1.32E+00
1.36E+00
1.32E+00
1.36E+00
1.36E+00
1.32E+00
1.36E+00
1.32E+00
1.36E+00
1.28E+00
1.36E+00
1.32E+00
1.40E+00
1.32E+00
1.36E+00
1.32E+00
1.36E+00
1.28E+00
1.36E+00
1.28E+00
1.36E+00
1.32E+00
1.36E+00
1.32E+00
1.36E+00
1.28E+00
1.32E+00
1.28E+00
1.36E+00
1.28E+00
1.36E+00
1.32E+00
1.36E+00
1.32E+00
1.36E+00
1.32E+00
1.36E+00
1.28E+00
1.36E+00
1.28E+00
1.36E+00
1.28E+00
1.36E+00
1.28E+00
1.36E+00
1.28E+00
1.36E+00
1.32E+00
1.28E+00
1.36E+00
1.28E+00
1.36E+00
1.32E+00
1.36E+00
1.32E+00
1.32E+00
1.28E+00
1.32E+00
1.28E+00
1.28E+00
1.36E+00
1.36E+00
1.28E+00
1.36E+00
1.32E+00
1.36E+00
1.28E+00
1.36E+00
1.28E+00
1.36E+00
1.32E+00
1.36E+00
1.32E+00
1.36E+00
1.32E+00
1.36E+00
1.28E+00
1.32E+00
1.28E+00
1.36E+00
1.36E+00
1.32E+00
1.40E+00
1.32E+00
1.36E+00
1.32E+00
1.36E+00
1.32E+00
1.36E+00
1.32E+00
1.36E+00
1.32E+00
1.40E+00
1.32E+00
1.36E+00
1.28E+00
1.32E+00
1.28E+00
1.32E+00
1.28E+00
1.28E+00
1.36E+00
1.36E+00
1.32E+00
1.36E+00
1.32E+00
1.36E+00
1.28E+00
1.28E+00
1.36E+00
1.36E+00
1.32E+00
1.36E+00
1.32E+00
1.32E+00
1.28E+00
1.32E+00
1.28E+00
1.28E+00
1.32E+00
1.32E+00
1.36E+00
1.32E+00
1.32E+00
1.32E+00
1.32E+00
1.32E+00
1.32E+00
1.32E+00
1.32E+00
1.32E+00
1.36E+00
1.36E+00
1.36E+00
1.32E+00
1.32E+00
1.32E+00
1.36E+00
1.32E+00
1.32E+00
1.32E+00
1.36E+00
1.36E+00
1.36E+00
1.36E+00
1.32E+00
1.32E+00
1.28E+00
1.32E+00
1.32E+00
1.32E+00
1.36E+00
1.32E+00
1.32E+00
