Format,2.0A,
Memory Length,5000,Memory Length,1000,
Trigger Level,2.96mV,Trigger Level,0.000E+00,
Source,CH1,Source,FFT,
Label, ,Label, ,
Probe Ratio,1.000E+00,Probe Ratio,1.000E+00,
Vertical Units,V,Vertical Units,dB,
Vertical Scale,1.000E-01,Vertical Scale,2.000E+01,
Vertical Position,8.800E-02,Vertical Position,0.000000E+00Div,
Horizontal Units,S,Horizontal Units,Hz,
Horizontal Scale,1.000E+00,Horizontal Scale,125Hz,
Horizontal Position,0.000E+00,Horizontal Position,0.000E+00,
Horizontal Mode,Roll Mode,Horizontal Mode,Roll Mode,
Sampling Period,2.000E-03,Sampling Period,1.250E+00,
Firmware,V1.18,Firmware,V1.18,
Time,04-Jun-15 22:05:00,Time,04-Jun-15 22:05:00,
Mode,Detail,Mode,Detail,
Waveform Data,,Waveform Data,,
-5.000000e+00,0.088000,0.000000e+00,-44.000000,
-4.998000e+00,0.076000,1.250000e+00,-33.599998,
-4.996000e+00,0.088000,2.500000e+00,-47.200001,
-4.994000e+00,0.076000,3.750000e+00,-38.400002,
-4.992000e+00,0.088000,5.000000e+00,-36.000000,
-4.990000e+00,0.076000,6.250000e+00,-42.400002,
-4.988000e+00,0.088000,7.500000e+00,-43.200001,
-4.986000e+00,0.076000,8.750000e+00,-40.799999,
-4.984000e+00,0.088000,1.000000e+01,-45.599998,
-4.982000e+00,0.080000,1.125000e+01,-46.400002,
-4.980000e+00,0.088000,1.250000e+01,-45.599998,
-4.978000e+00,0.080000,1.375000e+01,-44.000000,
-4.976000e+00,0.088000,1.500000e+01,-44.799999,
-4.974000e+00,0.080000,1.625000e+01,-51.200001,
-4.972000e+00,0.088000,1.750000e+01,-51.200001,
-4.970000e+00,0.080000,1.875000e+01,-48.799999,
-4.968000e+00,0.080000,2.000000e+01,-52.000000,
-4.966000e+00,0.092000,2.125000e+01,-53.599998,
-4.964000e+00,0.092000,2.250000e+01,-54.400002,
-4.962000e+00,0.084000,2.375000e+01,-54.400002,
-4.960000e+00,0.092000,2.500000e+01,-55.200001,
-4.958000e+00,0.084000,2.625000e+01,-64.000000,
-4.956000e+00,0.096000,2.750000e+01,-63.200001,
-4.954000e+00,0.084000,2.875000e+01,-60.000000,
-4.952000e+00,0.092000,3.000000e+01,-60.799999,
-4.950000e+00,0.088000,3.125000e+01,-66.400002,
-4.948000e+00,0.096000,3.250000e+01,-66.400002,
-4.946000e+00,0.084000,3.375000e+01,-63.200001,
-4.944000e+00,0.096000,3.500000e+01,-69.599998,
-4.942000e+00,0.084000,3.625000e+01,-65.599998,
-4.940000e+00,0.096000,3.750000e+01,-72.800003,
-4.938000e+00,0.088000,3.875000e+01,-72.000000,
-4.936000e+00,0.096000,4.000000e+01,-72.800003,
-4.934000e+00,0.088000,4.125000e+01,-73.599998,
-4.932000e+00,0.088000,4.250000e+01,-77.599998,
-4.930000e+00,0.100000,4.375000e+01,-76.000000,
-4.928000e+00,0.088000,4.500000e+01,-72.800003,
-4.926000e+00,0.100000,4.625000e+01,-75.199997,
-4.924000e+00,0.096000,4.750000e+01,-74.400002,
-4.922000e+00,0.088000,4.875000e+01,-69.599998,
-4.920000e+00,0.096000,5.000000e+01,-68.800003,
-4.918000e+00,0.088000,5.125000e+01,-84.800003,
-4.916000e+00,0.100000,5.250000e+01,-70.400002,
-4.914000e+00,0.088000,5.375000e+01,-68.000000,
-4.912000e+00,0.100000,5.500000e+01,-72.000000,
-4.910000e+00,0.092000,5.625000e+01,-83.199997,
-4.908000e+00,0.100000,5.750000e+01,-87.199997,
-4.906000e+00,0.092000,5.875000e+01,-73.599998,
-4.904000e+00,0.100000,6.000000e+01,-81.599998,
-4.902000e+00,0.088000,6.125000e+01,-78.400002,
-4.900000e+00,0.088000,6.250000e+01,-78.400002,
-4.898000e+00,0.100000,6.375000e+01,-75.199997,
-4.896000e+00,0.100000,6.500000e+01,-87.199997,
-4.894000e+00,0.088000,6.625000e+01,-75.199997,
-4.892000e+00,0.096000,6.750000e+01,-85.599998,
-4.890000e+00,0.088000,6.875000e+01,-80.000000,
-4.888000e+00,0.096000,7.000000e+01,-78.400002,
-4.886000e+00,0.088000,7.125000e+01,-89.599998,
-4.884000e+00,0.096000,7.250000e+01,-76.800003,
-4.882000e+00,0.088000,7.375000e+01,-77.599998,
-4.880000e+00,0.096000,7.500000e+01,-77.599998,
-4.878000e+00,0.088000,7.625000e+01,-87.199997,
-4.876000e+00,0.096000,7.750000e+01,-76.800003,
-4.874000e+00,0.084000,7.875000e+01,-83.199997,
-4.872000e+00,0.092000,8.000000e+01,-78.400002,
-4.870000e+00,0.084000,8.125000e+01,-74.400002,
-4.868000e+00,0.092000,8.250000e+01,-73.599998,
-4.866000e+00,0.080000,8.375000e+01,-77.599998,
-4.864000e+00,0.088000,8.500000e+01,-80.800003,
-4.862000e+00,0.080000,8.625000e+01,-80.800003,
-4.860000e+00,0.088000,8.750000e+01,-89.599998,
-4.858000e+00,0.080000,8.875000e+01,-74.400002,
-4.856000e+00,0.088000,9.000000e+01,-73.599998,
-4.854000e+00,0.076000,9.125000e+01,-80.000000,
-4.852000e+00,0.084000,9.250000e+01,-77.599998,
-4.850000e+00,0.076000,9.375000e+01,-76.000000,
-4.848000e+00,0.084000,9.500000e+01,-75.199997,
-4.846000e+00,0.076000,9.625000e+01,-89.599998,
-4.844000e+00,0.088000,9.750000e+01,-77.599998,
-4.842000e+00,0.072000,9.875000e+01,-80.800003,
-4.840000e+00,0.080000,1.000000e+02,-84.000000,
-4.838000e+00,0.072000,1.012500e+02,-82.400002,
-4.836000e+00,0.080000,1.025000e+02,-80.000000,
-4.834000e+00,0.072000,1.037500e+02,-87.199997,
-4.832000e+00,0.076000,1.050000e+02,-88.000000,
-4.830000e+00,0.068000,1.062500e+02,-86.400002,
-4.828000e+00,0.076000,1.075000e+02,-84.000000,
-4.826000e+00,0.064000,1.087500e+02,-92.800003,
-4.824000e+00,0.076000,1.100000e+02,-78.400002,
-4.822000e+00,0.064000,1.112500e+02,-73.599998,
-4.820000e+00,0.072000,1.125000e+02,-84.000000,
-4.818000e+00,0.064000,1.137500e+02,-84.800003,
-4.816000e+00,0.072000,1.150000e+02,-77.599998,
-4.814000e+00,0.064000,1.162500e+02,-82.400002,
-4.812000e+00,0.072000,1.175000e+02,-80.000000,
-4.810000e+00,0.060000,1.187500e+02,-78.400002,
-4.808000e+00,0.068000,1.200000e+02,-73.599998,
-4.806000e+00,0.060000,1.212500e+02,-82.400002,
-4.804000e+00,0.068000,1.225000e+02,-80.000000,
-4.802000e+00,0.060000,1.237500e+02,-77.599998,
-4.800000e+00,0.068000,1.250000e+02,-77.599998,
-4.798000e+00,0.056000,1.262500e+02,-77.599998,
-4.796000e+00,0.068000,1.275000e+02,-87.199997,
-4.794000e+00,0.056000,1.287500e+02,-76.800003,
-4.792000e+00,0.064000,1.300000e+02,-89.599998,
-4.790000e+00,0.056000,1.312500e+02,-80.000000,
-4.788000e+00,0.060000,1.325000e+02,-77.599998,
-4.786000e+00,0.052000,1.337500e+02,-80.000000,
-4.784000e+00,0.060000,1.350000e+02,-87.199997,
-4.782000e+00,0.052000,1.362500e+02,-76.000000,
-4.780000e+00,0.060000,1.375000e+02,-83.199997,
-4.778000e+00,0.052000,1.387500e+02,-77.599998,
-4.776000e+00,0.060000,1.400000e+02,-80.800003,
-4.774000e+00,0.048000,1.412500e+02,-83.199997,
-4.772000e+00,0.056000,1.425000e+02,-73.599998,
-4.770000e+00,0.048000,1.437500e+02,-81.599998,
-4.768000e+00,0.056000,1.450000e+02,-74.400002,
-4.766000e+00,0.048000,1.462500e+02,-82.400002,
-4.764000e+00,0.056000,1.475000e+02,-75.199997,
-4.762000e+00,0.044000,1.487500e+02,-75.199997,
-4.760000e+00,0.052000,1.500000e+02,-88.000000,
-4.758000e+00,0.044000,1.512500e+02,-87.199997,
-4.756000e+00,0.052000,1.525000e+02,-87.199997,
-4.754000e+00,0.044000,1.537500e+02,-74.400002,
-4.752000e+00,0.052000,1.550000e+02,-83.199997,
-4.750000e+00,0.040000,1.562500e+02,-79.199997,
-4.748000e+00,0.048000,1.575000e+02,-77.599998,
-4.746000e+00,0.036000,1.587500e+02,-74.400002,
-4.744000e+00,0.048000,1.600000e+02,-78.400002,
-4.742000e+00,0.036000,1.612500e+02,-80.000000,
-4.740000e+00,0.044000,1.625000e+02,-81.599998,
-4.738000e+00,0.036000,1.637500e+02,-84.000000,
-4.736000e+00,0.044000,1.650000e+02,-82.400002,
-4.734000e+00,0.036000,1.662500e+02,-100.800003,
-4.732000e+00,0.044000,1.675000e+02,-77.599998,
-4.730000e+00,0.032000,1.687500e+02,-80.000000,
-4.728000e+00,0.040000,1.700000e+02,-84.800003,
-4.726000e+00,0.032000,1.712500e+02,-84.800003,
-4.724000e+00,0.040000,1.725000e+02,-81.599998,
-4.722000e+00,0.032000,1.737500e+02,-88.000000,
-4.720000e+00,0.036000,1.750000e+02,-81.599998,
-4.718000e+00,0.032000,1.762500e+02,-77.599998,
-4.716000e+00,0.036000,1.775000e+02,-72.000000,
-4.714000e+00,0.028000,1.787500e+02,-72.800003,
-4.712000e+00,0.036000,1.800000e+02,-82.400002,
-4.710000e+00,0.028000,1.812500e+02,-76.000000,
-4.708000e+00,0.036000,1.825000e+02,-85.599998,
-4.706000e+00,0.028000,1.837500e+02,-72.800003,
-4.704000e+00,0.032000,1.850000e+02,-80.000000,
-4.702000e+00,0.024000,1.862500e+02,-72.800003,
-4.700000e+00,0.036000,1.875000e+02,-80.800003,
-4.698000e+00,0.020000,1.887500e+02,-84.800003,
-4.696000e+00,0.032000,1.900000e+02,-80.800003,
-4.694000e+00,0.024000,1.912500e+02,-79.199997,
-4.692000e+00,0.032000,1.925000e+02,-77.599998,
-4.690000e+00,0.020000,1.937500e+02,-80.000000,
-4.688000e+00,0.028000,1.950000e+02,-85.599998,
-4.686000e+00,0.020000,1.962500e+02,-84.800003,
-4.684000e+00,0.028000,1.975000e+02,-79.199997,
-4.682000e+00,0.020000,1.987500e+02,-74.400002,
-4.680000e+00,0.028000,2.000000e+02,-74.400002,
-4.678000e+00,0.016000,2.012500e+02,-84.800003,
-4.676000e+00,0.024000,2.025000e+02,-92.000000,
-4.674000e+00,0.016000,2.037500e+02,-80.000000,
-4.672000e+00,0.024000,2.050000e+02,-79.199997,
-4.670000e+00,0.016000,2.062500e+02,-85.599998,
-4.668000e+00,0.024000,2.075000e+02,-80.000000,
-4.666000e+00,0.012000,2.087500e+02,-83.199997,
-4.664000e+00,0.020000,2.100000e+02,-81.599998,
-4.662000e+00,0.012000,2.112500e+02,-83.199997,
-4.660000e+00,0.020000,2.125000e+02,-82.400002,
-4.658000e+00,0.012000,2.137500e+02,-95.199997,
-4.656000e+00,0.020000,2.150000e+02,-81.599998,
-4.654000e+00,0.008000,2.162500e+02,-80.000000,
-4.652000e+00,0.020000,2.175000e+02,-77.599998,
-4.650000e+00,0.004000,2.187500e+02,-82.400002,
-4.648000e+00,0.016000,2.200000e+02,-84.000000,
-4.646000e+00,0.008000,2.212500e+02,-83.199997,
-4.644000e+00,0.024000,2.225000e+02,-77.599998,
-4.642000e+00,0.004000,2.237500e+02,-83.199997,
-4.640000e+00,0.012000,2.250000e+02,-82.400002,
-4.638000e+00,0.004000,2.262500e+02,-92.800003,
-4.636000e+00,0.012000,2.275000e+02,-86.400002,
-4.634000e+00,0.004000,2.287500e+02,-78.400002,
-4.632000e+00,0.012000,2.300000e+02,-83.199997,
-4.630000e+00,0.004000,2.312500e+02,-79.199997,
-4.628000e+00,0.000000,2.325000e+02,-80.000000,
-4.626000e+00,0.012000,2.337500e+02,-83.199997,
-4.624000e+00,0.012000,2.350000e+02,-81.599998,
-4.622000e+00,0.000000,2.362500e+02,-85.599998,
-4.620000e+00,0.012000,2.375000e+02,-72.800003,
-4.618000e+00,0.004000,2.387500e+02,-76.800003,
-4.616000e+00,0.012000,2.400000e+02,-84.000000,
-4.614000e+00,0.004000,2.412500e+02,-79.199997,
-4.612000e+00,0.008000,2.425000e+02,-78.400002,
-4.610000e+00,0.000000,2.437500e+02,-84.000000,
-4.608000e+00,0.008000,2.450000e+02,-76.800003,
-4.606000e+00,0.000000,2.462500e+02,-89.599998,
-4.604000e+00,0.008000,2.475000e+02,-94.400002,
-4.602000e+00,-0.008000,2.487500e+02,-79.199997,
-4.600000e+00,0.016000,2.500000e+02,-88.000000,
-4.598000e+00,0.000000,2.512500e+02,-79.199997,
-4.596000e+00,0.008000,2.525000e+02,-79.199997,
-4.594000e+00,0.000000,2.537500e+02,-75.199997,
-4.592000e+00,0.008000,2.550000e+02,-81.599998,
-4.590000e+00,0.000000,2.562500e+02,-74.400002,
-4.588000e+00,0.008000,2.575000e+02,-84.000000,
-4.586000e+00,0.000000,2.587500e+02,-83.199997,
-4.584000e+00,0.008000,2.600000e+02,-80.000000,
-4.582000e+00,-0.004000,2.612500e+02,-88.000000,
-4.580000e+00,-0.004000,2.625000e+02,-84.000000,
-4.578000e+00,0.008000,2.637500e+02,-81.599998,
-4.576000e+00,0.004000,2.650000e+02,-80.800003,
-4.574000e+00,-0.004000,2.662500e+02,-76.800003,
-4.572000e+00,0.004000,2.675000e+02,-80.800003,
-4.570000e+00,-0.004000,2.687500e+02,-80.000000,
-4.568000e+00,0.004000,2.700000e+02,-72.800003,
-4.566000e+00,-0.004000,2.712500e+02,-76.000000,
-4.564000e+00,0.000000,2.725000e+02,-75.199997,
-4.562000e+00,-0.008000,2.737500e+02,-77.599998,
-4.560000e+00,0.000000,2.750000e+02,-83.199997,
-4.558000e+00,-0.008000,2.762500e+02,-84.000000,
-4.556000e+00,0.000000,2.775000e+02,-84.000000,
-4.554000e+00,-0.012000,2.787500e+02,-90.400002,
-4.552000e+00,0.000000,2.800000e+02,-77.599998,
-4.550000e+00,-0.012000,2.812500e+02,-77.599998,
-4.548000e+00,-0.004000,2.825000e+02,-76.800003,
-4.546000e+00,-0.012000,2.837500e+02,-89.599998,
-4.544000e+00,-0.004000,2.850000e+02,-84.000000,
-4.542000e+00,-0.012000,2.862500e+02,-78.400002,
-4.540000e+00,-0.004000,2.875000e+02,-81.599998,
-4.538000e+00,-0.012000,2.887500e+02,-84.000000,
-4.536000e+00,-0.008000,2.900000e+02,-80.000000,
-4.534000e+00,-0.016000,2.912500e+02,-80.800003,
-4.532000e+00,-0.008000,2.925000e+02,-84.000000,
-4.530000e+00,-0.016000,2.937500e+02,-83.199997,
-4.528000e+00,-0.008000,2.950000e+02,-80.800003,
-4.526000e+00,-0.016000,2.962500e+02,-72.800003,
-4.524000e+00,-0.008000,2.975000e+02,-77.599998,
-4.522000e+00,-0.020000,2.987500e+02,-78.400002,
-4.520000e+00,-0.012000,3.000000e+02,-80.800003,
-4.518000e+00,-0.020000,3.012500e+02,-96.800003,
-4.516000e+00,-0.012000,3.025000e+02,-77.599998,
-4.514000e+00,-0.020000,3.037500e+02,-81.599998,
-4.512000e+00,-0.012000,3.050000e+02,-84.000000,
-4.510000e+00,-0.020000,3.062500e+02,-76.800003,
-4.508000e+00,-0.016000,3.075000e+02,-77.599998,
-4.506000e+00,-0.024000,3.087500e+02,-83.199997,
-4.504000e+00,-0.012000,3.100000e+02,-78.400002,
-4.502000e+00,-0.024000,3.112500e+02,-76.800003,
-4.500000e+00,-0.016000,3.125000e+02,-83.199997,
-4.498000e+00,-0.028000,3.137500e+02,-76.000000,
-4.496000e+00,-0.016000,3.150000e+02,-85.599998,
-4.494000e+00,-0.028000,3.162500e+02,-80.000000,
-4.492000e+00,-0.020000,3.175000e+02,-78.400002,
-4.490000e+00,-0.028000,3.187500e+02,-84.000000,
-4.488000e+00,-0.020000,3.200000e+02,-95.199997,
-4.486000e+00,-0.028000,3.212500e+02,-80.800003,
-4.484000e+00,-0.020000,3.225000e+02,-82.400002,
-4.482000e+00,-0.032000,3.237500e+02,-84.800003,
-4.480000e+00,-0.020000,3.250000e+02,-95.199997,
-4.478000e+00,-0.028000,3.262500e+02,-82.400002,
-4.476000e+00,-0.024000,3.275000e+02,-79.199997,
-4.474000e+00,-0.028000,3.287500e+02,-80.000000,
-4.472000e+00,-0.024000,3.300000e+02,-78.400002,
-4.470000e+00,-0.032000,3.312500e+02,-82.400002,
-4.468000e+00,-0.024000,3.325000e+02,-85.599998,
-4.466000e+00,-0.032000,3.337500e+02,-81.599998,
-4.464000e+00,-0.024000,3.350000e+02,-79.199997,
-4.462000e+00,-0.032000,3.362500e+02,-91.199997,
-4.460000e+00,-0.024000,3.375000e+02,-77.599998,
-4.458000e+00,-0.032000,3.387500e+02,-76.800003,
-4.456000e+00,-0.024000,3.400000e+02,-80.800003,
-4.454000e+00,-0.032000,3.412500e+02,-84.800003,
-4.452000e+00,-0.024000,3.425000e+02,-88.000000,
-4.450000e+00,-0.032000,3.437500e+02,-76.000000,
-4.448000e+00,-0.036000,3.450000e+02,-84.800003,
-4.446000e+00,-0.024000,3.462500e+02,-76.800003,
-4.444000e+00,-0.024000,3.475000e+02,-78.400002,
-4.442000e+00,-0.040000,3.487500e+02,-95.199997,
-4.440000e+00,-0.028000,3.500000e+02,-79.199997,
-4.438000e+00,-0.036000,3.512500e+02,-92.000000,
-4.436000e+00,-0.028000,3.525000e+02,-79.199997,
-4.434000e+00,-0.032000,3.537500e+02,-102.400002,
-4.432000e+00,-0.028000,3.550000e+02,-82.400002,
-4.430000e+00,-0.036000,3.562500e+02,-76.000000,
-4.428000e+00,-0.028000,3.575000e+02,-94.400002,
-4.426000e+00,-0.040000,3.587500e+02,-78.400002,
-4.424000e+00,-0.028000,3.600000e+02,-74.400002,
-4.422000e+00,-0.036000,3.612500e+02,-76.800003,
-4.420000e+00,-0.028000,3.625000e+02,-79.199997,
-4.418000e+00,-0.036000,3.637500e+02,-92.000000,
-4.416000e+00,-0.024000,3.650000e+02,-92.000000,
-4.414000e+00,-0.036000,3.662500e+02,-79.199997,
-4.412000e+00,-0.024000,3.675000e+02,-82.400002,
-4.410000e+00,-0.036000,3.687500e+02,-87.199997,
-4.408000e+00,-0.028000,3.700000e+02,-96.800003,
-4.406000e+00,-0.036000,3.712500e+02,-78.400002,
-4.404000e+00,-0.028000,3.725000e+02,-77.599998,
-4.402000e+00,-0.036000,3.737500e+02,-77.599998,
-4.400000e+00,-0.028000,3.750000e+02,-95.199997,
-4.398000e+00,-0.044000,3.762500e+02,-79.199997,
-4.396000e+00,-0.028000,3.775000e+02,-78.400002,
-4.394000e+00,-0.040000,3.787500e+02,-84.000000,
-4.392000e+00,-0.028000,3.800000e+02,-80.800003,
-4.390000e+00,-0.036000,3.812500e+02,-81.599998,
-4.388000e+00,-0.028000,3.825000e+02,-91.199997,
-4.386000e+00,-0.036000,3.837500e+02,-84.800003,
-4.384000e+00,-0.028000,3.850000e+02,-76.800003,
-4.382000e+00,-0.036000,3.862500e+02,-80.800003,
-4.380000e+00,-0.028000,3.875000e+02,-100.800003,
-4.378000e+00,-0.040000,3.887500e+02,-84.000000,
-4.376000e+00,-0.028000,3.900000e+02,-92.800003,
-4.374000e+00,-0.036000,3.912500e+02,-78.400002,
-4.372000e+00,-0.028000,3.925000e+02,-89.599998,
-4.370000e+00,-0.040000,3.937500e+02,-81.599998,
-4.368000e+00,-0.028000,3.950000e+02,-78.400002,
-4.366000e+00,-0.040000,3.962500e+02,-78.400002,
-4.364000e+00,-0.028000,3.975000e+02,-83.199997,
-4.362000e+00,-0.036000,3.987500e+02,-78.400002,
-4.360000e+00,-0.028000,4.000000e+02,-78.400002,
-4.358000e+00,-0.036000,4.012500e+02,-84.000000,
-4.356000e+00,-0.028000,4.025000e+02,-83.199997,
-4.354000e+00,-0.036000,4.037500e+02,-75.199997,
-4.352000e+00,-0.028000,4.050000e+02,-89.599998,
-4.350000e+00,-0.040000,4.062500e+02,-102.400002,
-4.348000e+00,-0.028000,4.075000e+02,-84.000000,
-4.346000e+00,-0.036000,4.087500e+02,-80.000000,
-4.344000e+00,-0.028000,4.100000e+02,-86.400002,
-4.342000e+00,-0.036000,4.112500e+02,-80.800003,
-4.340000e+00,-0.028000,4.125000e+02,-71.199997,
-4.338000e+00,-0.036000,4.137500e+02,-82.400002,
-4.336000e+00,-0.024000,4.150000e+02,-76.800003,
-4.334000e+00,-0.036000,4.162500e+02,-85.599998,
-4.332000e+00,-0.028000,4.175000e+02,-75.199997,
-4.330000e+00,-0.036000,4.187500e+02,-80.800003,
-4.328000e+00,-0.024000,4.200000e+02,-84.000000,
-4.326000e+00,-0.036000,4.212500e+02,-82.400002,
-4.324000e+00,-0.024000,4.225000e+02,-81.599998,
-4.322000e+00,-0.032000,4.237500e+02,-76.000000,
-4.320000e+00,-0.024000,4.250000e+02,-76.800003,
-4.318000e+00,-0.036000,4.262500e+02,-81.599998,
-4.316000e+00,-0.024000,4.275000e+02,-83.199997,
-4.314000e+00,-0.032000,4.287500e+02,-76.800003,
-4.312000e+00,-0.020000,4.300000e+02,-80.000000,
-4.310000e+00,-0.032000,4.312500e+02,-87.199997,
-4.308000e+00,-0.024000,4.325000e+02,-80.000000,
-4.306000e+00,-0.032000,4.337500e+02,-76.000000,
-4.304000e+00,-0.024000,4.350000e+02,-78.400002,
-4.302000e+00,-0.028000,4.362500e+02,-76.800003,
-4.300000e+00,-0.032000,4.375000e+02,-85.599998,
-4.298000e+00,-0.020000,4.387500e+02,-83.199997,
-4.296000e+00,-0.020000,4.400000e+02,-80.000000,
-4.294000e+00,-0.032000,4.412500e+02,-76.800003,
-4.292000e+00,-0.020000,4.425000e+02,-78.400002,
-4.290000e+00,-0.028000,4.437500e+02,-80.000000,
-4.288000e+00,-0.020000,4.450000e+02,-98.400002,
-4.286000e+00,-0.028000,4.462500e+02,-84.000000,
-4.284000e+00,-0.032000,4.475000e+02,-78.400002,
-4.282000e+00,-0.020000,4.487500e+02,-76.800003,
-4.280000e+00,-0.020000,4.500000e+02,-92.800003,
-4.278000e+00,-0.028000,4.512500e+02,-72.000000,
-4.276000e+00,-0.020000,4.525000e+02,-80.000000,
-4.274000e+00,-0.028000,4.537500e+02,-80.000000,
-4.272000e+00,-0.016000,4.550000e+02,-72.800003,
-4.270000e+00,-0.028000,4.562500e+02,-80.800003,
-4.268000e+00,-0.016000,4.575000e+02,-81.599998,
-4.266000e+00,-0.032000,4.587500e+02,-81.599998,
-4.264000e+00,-0.020000,4.600000e+02,-76.000000,
-4.262000e+00,-0.028000,4.612500e+02,-75.199997,
-4.260000e+00,-0.020000,4.625000e+02,-81.599998,
-4.258000e+00,-0.028000,4.637500e+02,-78.400002,
-4.256000e+00,-0.016000,4.650000e+02,-77.599998,
-4.254000e+00,-0.024000,4.662500e+02,-80.000000,
-4.252000e+00,-0.016000,4.675000e+02,-87.199997,
-4.250000e+00,-0.028000,4.687500e+02,-80.800003,
-4.248000e+00,-0.016000,4.700000e+02,-80.800003,
-4.246000e+00,-0.024000,4.712500e+02,-74.400002,
-4.244000e+00,-0.016000,4.725000e+02,-80.000000,
-4.242000e+00,-0.028000,4.737500e+02,-76.800003,
-4.240000e+00,-0.016000,4.750000e+02,-96.800003,
-4.238000e+00,-0.024000,4.762500e+02,-79.199997,
-4.236000e+00,-0.016000,4.775000e+02,-83.199997,
-4.234000e+00,-0.024000,4.787500e+02,-76.800003,
-4.232000e+00,-0.016000,4.800000e+02,-76.000000,
-4.230000e+00,-0.024000,4.812500e+02,-95.199997,
-4.228000e+00,-0.016000,4.825000e+02,-77.599998,
-4.226000e+00,-0.024000,4.837500e+02,-79.199997,
-4.224000e+00,-0.016000,4.850000e+02,-80.800003,
-4.222000e+00,-0.024000,4.862500e+02,-83.199997,
-4.220000e+00,-0.016000,4.875000e+02,-80.000000,
-4.218000e+00,-0.020000,4.887500e+02,-92.800003,
-4.216000e+00,-0.016000,4.900000e+02,-80.800003,
-4.214000e+00,-0.024000,4.912500e+02,-77.599998,
-4.212000e+00,-0.012000,4.925000e+02,-74.400002,
-4.210000e+00,-0.024000,4.937500e+02,-88.800003,
-4.208000e+00,-0.016000,4.950000e+02,-88.000000,
-4.206000e+00,-0.024000,4.962500e+02,-79.199997,
-4.204000e+00,-0.012000,4.975000e+02,-77.599998,
-4.202000e+00,-0.024000,4.987500e+02,-73.599998,
-4.200000e+00,-0.012000,5.000000e+02,-84.800003,
-4.198000e+00,-0.024000,5.012500e+02,-78.400002,
-4.196000e+00,-0.016000,5.025000e+02,-82.400002,
-4.194000e+00,-0.024000,5.037500e+02,-77.599998,
-4.192000e+00,-0.016000,5.050000e+02,-87.199997,
-4.190000e+00,-0.024000,5.062500e+02,-84.000000,
-4.188000e+00,-0.016000,5.075000e+02,-84.800003,
-4.186000e+00,-0.024000,5.087500e+02,-84.800003,
-4.184000e+00,-0.016000,5.100000e+02,-81.599998,
-4.182000e+00,-0.024000,5.112500e+02,-84.800003,
-4.180000e+00,-0.012000,5.125000e+02,-81.599998,
-4.178000e+00,-0.024000,5.137500e+02,-80.000000,
-4.176000e+00,-0.016000,5.150000e+02,-81.599998,
-4.174000e+00,-0.024000,5.162500e+02,-75.199997,
-4.172000e+00,-0.016000,5.175000e+02,-73.599998,
-4.170000e+00,-0.020000,5.187500e+02,-78.400002,
-4.168000e+00,-0.016000,5.200000e+02,-82.400002,
-4.166000e+00,-0.020000,5.212500e+02,-74.400002,
-4.164000e+00,-0.016000,5.225000e+02,-76.800003,
-4.162000e+00,-0.024000,5.237500e+02,-100.800003,
-4.160000e+00,-0.012000,5.250000e+02,-77.599998,
-4.158000e+00,-0.024000,5.262500e+02,-83.199997,
-4.156000e+00,-0.012000,5.275000e+02,-77.599998,
-4.154000e+00,-0.028000,5.287500e+02,-78.400002,
-4.152000e+00,-0.012000,5.300000e+02,-77.599998,
-4.150000e+00,-0.020000,5.312500e+02,-94.400002,
-4.148000e+00,-0.024000,5.325000e+02,-73.599998,
-4.146000e+00,-0.012000,5.337500e+02,-77.599998,
-4.144000e+00,-0.012000,5.350000e+02,-84.800003,
-4.142000e+00,-0.020000,5.362500e+02,-92.000000,
-4.140000e+00,-0.024000,5.375000e+02,-87.199997,
-4.138000e+00,-0.012000,5.387500e+02,-80.000000,
-4.136000e+00,-0.012000,5.400000e+02,-80.000000,
-4.134000e+00,-0.020000,5.412500e+02,-75.199997,
-4.132000e+00,-0.012000,5.425000e+02,-80.800003,
-4.130000e+00,-0.024000,5.437500e+02,-75.199997,
-4.128000e+00,-0.012000,5.450000e+02,-79.199997,
-4.126000e+00,-0.024000,5.462500e+02,-82.400002,
-4.124000e+00,-0.012000,5.475000e+02,-85.599998,
-4.122000e+00,-0.024000,5.487500e+02,-80.800003,
-4.120000e+00,-0.012000,5.500000e+02,-75.199997,
-4.118000e+00,-0.020000,5.512500e+02,-81.599998,
-4.116000e+00,-0.012000,5.525000e+02,-76.800003,
-4.114000e+00,-0.020000,5.537500e+02,-76.000000,
-4.112000e+00,-0.012000,5.550000e+02,-74.400002,
-4.110000e+00,-0.020000,5.562500e+02,-84.000000,
-4.108000e+00,-0.012000,5.575000e+02,-84.000000,
-4.106000e+00,-0.024000,5.587500e+02,-87.199997,
-4.104000e+00,-0.012000,5.600000e+02,-76.000000,
-4.102000e+00,-0.020000,5.612500e+02,-83.199997,
-4.100000e+00,-0.016000,5.625000e+02,-76.000000,
-4.098000e+00,-0.024000,5.637500e+02,-76.000000,
-4.096000e+00,-0.028000,5.650000e+02,-84.800003,
-4.094000e+00,-0.012000,5.662500e+02,-78.400002,
-4.092000e+00,-0.016000,5.675000e+02,-81.599998,
-4.090000e+00,-0.024000,5.687500e+02,-72.800003,
-4.088000e+00,-0.012000,5.700000e+02,-88.000000,
-4.086000e+00,-0.024000,5.712500e+02,-82.400002,
-4.084000e+00,-0.016000,5.725000e+02,-76.800003,
-4.082000e+00,-0.024000,5.737500e+02,-86.400002,
-4.080000e+00,-0.016000,5.750000e+02,-76.800003,
-4.078000e+00,-0.024000,5.762500e+02,-75.199997,
-4.076000e+00,-0.016000,5.775000e+02,-90.400002,
-4.074000e+00,-0.024000,5.787500e+02,-72.800003,
-4.072000e+00,-0.016000,5.800000e+02,-77.599998,
-4.070000e+00,-0.024000,5.812500e+02,-76.800003,
-4.068000e+00,-0.016000,5.825000e+02,-87.199997,
-4.066000e+00,-0.024000,5.837500e+02,-84.000000,
-4.064000e+00,-0.012000,5.850000e+02,-77.599998,
-4.062000e+00,-0.024000,5.862500e+02,-77.599998,
-4.060000e+00,-0.012000,5.875000e+02,-76.800003,
-4.058000e+00,-0.020000,5.887500e+02,-88.800003,
-4.056000e+00,-0.024000,5.900000e+02,-74.400002,
-4.054000e+00,-0.012000,5.912500e+02,-81.599998,
-4.052000e+00,-0.012000,5.925000e+02,-75.199997,
-4.050000e+00,-0.024000,5.937500e+02,-76.800003,
-4.048000e+00,-0.012000,5.950000e+02,-80.000000,
-4.046000e+00,-0.020000,5.962500e+02,-77.599998,
-4.044000e+00,-0.012000,5.975000e+02,-76.000000,
-4.042000e+00,-0.024000,5.987500e+02,-72.800003,
-4.040000e+00,-0.020000,6.000000e+02,-89.599998,
-4.038000e+00,-0.008000,6.012500e+02,-80.000000,
-4.036000e+00,-0.012000,6.025000e+02,-75.199997,
-4.034000e+00,-0.016000,6.037500e+02,-79.199997,
-4.032000e+00,-0.012000,6.050000e+02,-84.800003,
-4.030000e+00,-0.016000,6.062500e+02,-80.800003,
-4.028000e+00,-0.008000,6.075000e+02,-76.000000,
-4.026000e+00,-0.020000,6.087500e+02,-76.000000,
-4.024000e+00,-0.008000,6.100000e+02,-76.000000,
-4.022000e+00,-0.020000,6.112500e+02,-88.000000,
-4.020000e+00,-0.008000,6.125000e+02,-80.800003,
-4.018000e+00,-0.020000,6.137500e+02,-88.000000,
-4.016000e+00,-0.020000,6.150000e+02,-70.400002,
-4.014000e+00,-0.008000,6.162500e+02,-80.800003,
-4.012000e+00,-0.012000,6.175000e+02,-76.800003,
-4.010000e+00,-0.020000,6.187500e+02,-72.000000,
-4.008000e+00,-0.012000,6.200000e+02,-80.000000,
-4.006000e+00,-0.020000,6.212500e+02,-92.000000,
-4.004000e+00,-0.012000,6.225000e+02,-76.800003,
-4.002000e+00,-0.024000,6.237500e+02,-96.800003,
-4.000000e+00,-0.012000,6.250000e+02,-84.000000,
-3.998000e+00,-0.024000,6.262500e+02,-80.800003,
-3.996000e+00,-0.016000,6.275000e+02,-74.400002,
-3.994000e+00,-0.024000,6.287500e+02,-82.400002,
-3.992000e+00,-0.016000,6.300000e+02,-76.000000,
-3.990000e+00,-0.024000,6.312500e+02,-74.400002,
-3.988000e+00,-0.016000,6.325000e+02,-81.599998,
-3.986000e+00,-0.024000,6.337500e+02,-80.800003,
-3.984000e+00,-0.016000,6.350000e+02,-74.400002,
-3.982000e+00,-0.024000,6.362500e+02,-76.800003,
-3.980000e+00,-0.016000,6.375000e+02,-77.599998,
-3.978000e+00,-0.024000,6.387500e+02,-75.199997,
-3.976000e+00,-0.016000,6.400000e+02,-71.199997,
-3.974000e+00,-0.028000,6.412500e+02,-74.400002,
-3.972000e+00,-0.016000,6.425000e+02,-76.800003,
-3.970000e+00,-0.028000,6.437500e+02,-78.400002,
-3.968000e+00,-0.020000,6.450000e+02,-85.599998,
-3.966000e+00,-0.028000,6.462500e+02,-83.199997,
-3.964000e+00,-0.016000,6.475000e+02,-74.400002,
-3.962000e+00,-0.028000,6.487500e+02,-78.400002,
-3.960000e+00,-0.020000,6.500000e+02,-79.199997,
-3.958000e+00,-0.028000,6.512500e+02,-72.800003,
-3.956000e+00,-0.020000,6.525000e+02,-95.199997,
-3.954000e+00,-0.028000,6.537500e+02,-84.800003,
-3.952000e+00,-0.016000,6.550000e+02,-82.400002,
-3.950000e+00,-0.024000,6.562500e+02,-81.599998,
-3.948000e+00,-0.020000,6.575000e+02,-83.199997,
-3.946000e+00,-0.028000,6.587500e+02,-94.400002,
-3.944000e+00,-0.020000,6.600000e+02,-75.199997,
-3.942000e+00,-0.028000,6.612500e+02,-81.599998,
-3.940000e+00,-0.020000,6.625000e+02,-77.599998,
-3.938000e+00,-0.028000,6.637500e+02,-79.199997,
-3.936000e+00,-0.016000,6.650000e+02,-73.599998,
-3.934000e+00,-0.028000,6.662500e+02,-79.199997,
-3.932000e+00,-0.016000,6.675000e+02,-80.800003,
-3.930000e+00,-0.028000,6.687500e+02,-81.599998,
-3.928000e+00,-0.016000,6.700000e+02,-79.199997,
-3.926000e+00,-0.024000,6.712500e+02,-78.400002,
-3.924000e+00,-0.016000,6.725000e+02,-76.000000,
-3.922000e+00,-0.028000,6.737500e+02,-80.000000,
-3.920000e+00,-0.016000,6.750000e+02,-84.000000,
-3.918000e+00,-0.024000,6.762500e+02,-83.199997,
-3.916000e+00,-0.012000,6.775000e+02,-80.000000,
-3.914000e+00,-0.024000,6.787500e+02,-72.000000,
-3.912000e+00,-0.016000,6.800000e+02,-74.400002,
-3.910000e+00,-0.024000,6.812500e+02,-88.000000,
-3.908000e+00,-0.016000,6.825000e+02,-84.800003,
-3.906000e+00,-0.024000,6.837500e+02,-92.800003,
-3.904000e+00,-0.012000,6.850000e+02,-79.199997,
-3.902000e+00,-0.024000,6.862500e+02,-72.800003,
-3.900000e+00,-0.012000,6.875000e+02,-73.599998,
-3.898000e+00,-0.024000,6.887500e+02,-94.400002,
-3.896000e+00,-0.008000,6.900000e+02,-76.000000,
-3.894000e+00,-0.024000,6.912500e+02,-84.000000,
-3.892000e+00,-0.012000,6.925000e+02,-85.599998,
-3.890000e+00,-0.020000,6.937500e+02,-74.400002,
-3.888000e+00,-0.012000,6.950000e+02,-75.199997,
-3.886000e+00,-0.020000,6.962500e+02,-79.199997,
-3.884000e+00,-0.012000,6.975000e+02,-88.000000,
-3.882000e+00,-0.020000,6.987500e+02,-92.000000,
-3.880000e+00,-0.012000,7.000000e+02,-74.400002,
-3.878000e+00,-0.020000,7.012500e+02,-84.000000,
-3.876000e+00,-0.012000,7.025000e+02,-80.800003,
-3.874000e+00,-0.020000,7.037500e+02,-76.000000,
-3.872000e+00,-0.012000,7.050000e+02,-76.000000,
-3.870000e+00,-0.024000,7.062500e+02,-75.199997,
-3.868000e+00,-0.012000,7.075000e+02,-76.800003,
-3.866000e+00,-0.024000,7.087500e+02,-75.199997,
-3.864000e+00,-0.012000,7.100000e+02,-85.599998,
-3.862000e+00,-0.020000,7.112500e+02,-76.000000,
-3.860000e+00,-0.012000,7.125000e+02,-86.400002,
-3.858000e+00,-0.020000,7.137500e+02,-80.800003,
-3.856000e+00,-0.012000,7.150000e+02,-88.800003,
-3.854000e+00,-0.020000,7.162500e+02,-72.800003,
-3.852000e+00,-0.008000,7.175000e+02,-80.800003,
-3.850000e+00,-0.020000,7.187500e+02,-76.800003,
-3.848000e+00,-0.008000,7.200000e+02,-76.000000,
-3.846000e+00,-0.020000,7.212500e+02,-72.800003,
-3.844000e+00,-0.012000,7.225000e+02,-80.000000,
-3.842000e+00,-0.020000,7.237500e+02,-88.800003,
-3.840000e+00,-0.008000,7.250000e+02,-80.800003,
-3.838000e+00,-0.016000,7.262500e+02,-95.199997,
-3.836000e+00,-0.008000,7.275000e+02,-79.199997,
-3.834000e+00,-0.020000,7.287500e+02,-80.000000,
-3.832000e+00,-0.008000,7.300000e+02,-79.199997,
-3.830000e+00,-0.016000,7.312500e+02,-74.400002,
-3.828000e+00,-0.008000,7.325000e+02,-78.400002,
-3.826000e+00,-0.016000,7.337500e+02,-78.400002,
-3.824000e+00,-0.008000,7.350000e+02,-80.800003,
-3.822000e+00,-0.016000,7.362500e+02,-82.400002,
-3.820000e+00,-0.016000,7.375000e+02,-73.599998,
-3.818000e+00,-0.004000,7.387500e+02,-83.199997,
-3.816000e+00,-0.016000,7.400000e+02,-75.199997,
-3.814000e+00,-0.004000,7.412500e+02,-76.800003,
-3.812000e+00,-0.016000,7.425000e+02,-80.000000,
-3.810000e+00,-0.004000,7.437500e+02,-84.000000,
-3.808000e+00,-0.016000,7.450000e+02,-87.199997,
-3.806000e+00,-0.004000,7.462500e+02,-89.599998,
-3.804000e+00,-0.004000,7.475000e+02,-75.199997,
-3.802000e+00,-0.020000,7.487500e+02,-89.599998,
-3.800000e+00,-0.016000,7.500000e+02,-80.000000,
-3.798000e+00,-0.004000,7.512500e+02,-78.400002,
-3.796000e+00,-0.004000,7.525000e+02,-84.000000,
-3.794000e+00,-0.012000,7.537500e+02,-81.599998,
-3.792000e+00,-0.004000,7.550000e+02,-82.400002,
-3.790000e+00,-0.012000,7.562500e+02,-76.800003,
-3.788000e+00,-0.004000,7.575000e+02,-70.400002,
-3.786000e+00,-0.012000,7.587500e+02,-75.199997,
-3.784000e+00,0.000000,7.600000e+02,-79.199997,
-3.782000e+00,-0.012000,7.612500e+02,-85.599998,
-3.780000e+00,-0.004000,7.625000e+02,-87.199997,
-3.778000e+00,-0.012000,7.637500e+02,-78.400002,
-3.776000e+00,-0.004000,7.650000e+02,-87.199997,
-3.774000e+00,-0.012000,7.662500e+02,-75.199997,
-3.772000e+00,-0.004000,7.675000e+02,-75.199997,
-3.770000e+00,-0.012000,7.687500e+02,-74.400002,
-3.768000e+00,0.000000,7.700000e+02,-77.599998,
-3.766000e+00,-0.012000,7.712500e+02,-70.400002,
-3.764000e+00,-0.004000,7.725000e+02,-77.599998,
-3.762000e+00,-0.012000,7.737500e+02,-76.800003,
-3.760000e+00,-0.004000,7.750000e+02,-83.199997,
-3.758000e+00,-0.012000,7.762500e+02,-76.000000,
-3.756000e+00,-0.004000,7.775000e+02,-75.199997,
-3.754000e+00,-0.012000,7.787500e+02,-76.800003,
-3.752000e+00,-0.004000,7.800000e+02,-84.800003,
-3.750000e+00,-0.012000,7.812500e+02,-77.599998,
-3.748000e+00,-0.004000,7.825000e+02,-84.800003,
-3.746000e+00,-0.012000,7.837500e+02,-74.400002,
-3.744000e+00,0.000000,7.850000e+02,-88.800003,
-3.742000e+00,-0.012000,7.862500e+02,-89.599998,
-3.740000e+00,-0.004000,7.875000e+02,-91.199997,
-3.738000e+00,-0.012000,7.887500e+02,-78.400002,
-3.736000e+00,-0.004000,7.900000e+02,-80.000000,
-3.734000e+00,-0.012000,7.912500e+02,-74.400002,
-3.732000e+00,-0.004000,7.925000e+02,-77.599998,
-3.730000e+00,-0.012000,7.937500e+02,-80.800003,
-3.728000e+00,0.004000,7.950000e+02,-70.400002,
-3.726000e+00,-0.012000,7.962500e+02,-81.599998,
-3.724000e+00,-0.012000,7.975000e+02,-75.199997,
-3.722000e+00,0.000000,7.987500e+02,-74.400002,
-3.720000e+00,0.000000,8.000000e+02,-80.000000,
-3.718000e+00,-0.008000,8.012500e+02,-81.599998,
-3.716000e+00,-0.012000,8.025000e+02,-85.599998,
-3.714000e+00,0.000000,8.037500e+02,-80.800003,
-3.712000e+00,0.000000,8.050000e+02,-79.199997,
-3.710000e+00,-0.012000,8.062500e+02,-80.800003,
-3.708000e+00,-0.012000,8.075000e+02,-78.400002,
-3.706000e+00,0.000000,8.087500e+02,-72.800003,
-3.704000e+00,0.000000,8.100000e+02,-71.199997,
-3.702000e+00,-0.012000,8.112500e+02,-76.800003,
-3.700000e+00,0.000000,8.125000e+02,-82.400002,
-3.698000e+00,-0.008000,8.137500e+02,-72.000000,
-3.696000e+00,0.000000,8.150000e+02,-78.400002,
-3.694000e+00,-0.012000,8.162500e+02,-87.199997,
-3.692000e+00,0.000000,8.175000e+02,-75.199997,
-3.690000e+00,-0.008000,8.187500e+02,-75.199997,
-3.688000e+00,0.000000,8.200000e+02,-76.000000,
-3.686000e+00,-0.008000,8.212500e+02,-90.400002,
-3.684000e+00,0.000000,8.225000e+02,-85.599998,
-3.682000e+00,-0.008000,8.237500e+02,-79.199997,
-3.680000e+00,0.000000,8.250000e+02,-84.800003,
-3.678000e+00,-0.008000,8.262500e+02,-76.800003,
-3.676000e+00,0.000000,8.275000e+02,-78.400002,
-3.674000e+00,-0.008000,8.287500e+02,-80.000000,
-3.672000e+00,0.000000,8.300000e+02,-81.599998,
-3.670000e+00,-0.008000,8.312500e+02,-76.000000,
-3.668000e+00,0.000000,8.325000e+02,-79.199997,
-3.666000e+00,-0.008000,8.337500e+02,-80.000000,
-3.664000e+00,0.004000,8.350000e+02,-76.800003,
-3.662000e+00,-0.008000,8.362500e+02,-102.400002,
-3.660000e+00,0.000000,8.375000e+02,-82.400002,
-3.658000e+00,-0.008000,8.387500e+02,-72.000000,
-3.656000e+00,0.000000,8.400000e+02,-80.000000,
-3.654000e+00,-0.008000,8.412500e+02,-72.800003,
-3.652000e+00,0.000000,8.425000e+02,-73.599998,
-3.650000e+00,-0.008000,8.437500e+02,-75.199997,
-3.648000e+00,-0.012000,8.450000e+02,-81.599998,
-3.646000e+00,0.004000,8.462500e+02,-83.199997,
-3.644000e+00,0.000000,8.475000e+02,-77.599998,
-3.642000e+00,-0.008000,8.487500e+02,-78.400002,
-3.640000e+00,0.000000,8.500000e+02,-80.800003,
-3.638000e+00,-0.008000,8.512500e+02,-80.000000,
-3.636000e+00,0.004000,8.525000e+02,-84.800003,
-3.634000e+00,-0.008000,8.537500e+02,-75.199997,
-3.632000e+00,0.000000,8.550000e+02,-76.800003,
-3.630000e+00,-0.008000,8.562500e+02,-80.000000,
-3.628000e+00,0.000000,8.575000e+02,-72.800003,
-3.626000e+00,-0.008000,8.587500e+02,-76.800003,
-3.624000e+00,0.000000,8.600000e+02,-88.000000,
-3.622000e+00,-0.008000,8.612500e+02,-79.199997,
-3.620000e+00,0.000000,8.625000e+02,-76.800003,
-3.618000e+00,-0.008000,8.637500e+02,-84.000000,
-3.616000e+00,0.000000,8.650000e+02,-74.400002,
-3.614000e+00,-0.008000,8.662500e+02,-75.199997,
-3.612000e+00,0.004000,8.675000e+02,-84.800003,
-3.610000e+00,-0.008000,8.687500e+02,-92.000000,
-3.608000e+00,0.000000,8.700000e+02,-75.199997,
-3.606000e+00,-0.008000,8.712500e+02,-77.599998,
-3.604000e+00,0.004000,8.725000e+02,-75.199997,
-3.602000e+00,-0.004000,8.737500e+02,-71.199997,
-3.600000e+00,0.004000,8.750000e+02,-76.800003,
-3.598000e+00,-0.008000,8.762500e+02,-84.000000,
-3.596000e+00,0.004000,8.775000e+02,-75.199997,
-3.594000e+00,-0.008000,8.787500e+02,-88.800003,
-3.592000e+00,0.004000,8.800000e+02,-73.599998,
-3.590000e+00,-0.008000,8.812500e+02,-83.199997,
-3.588000e+00,0.004000,8.825000e+02,-73.599998,
-3.586000e+00,-0.004000,8.837500e+02,-84.800003,
-3.584000e+00,0.004000,8.850000e+02,-80.800003,
-3.582000e+00,-0.004000,8.862500e+02,-80.000000,
-3.580000e+00,0.004000,8.875000e+02,-74.400002,
-3.578000e+00,-0.004000,8.887500e+02,-74.400002,
-3.576000e+00,0.004000,8.900000e+02,-69.599998,
-3.574000e+00,-0.004000,8.912500e+02,-76.000000,
-3.572000e+00,0.004000,8.925000e+02,-84.000000,
-3.570000e+00,-0.004000,8.937500e+02,-80.000000,
-3.568000e+00,0.008000,8.950000e+02,-79.199997,
-3.566000e+00,-0.004000,8.962500e+02,-79.199997,
-3.564000e+00,0.008000,8.975000e+02,-77.599998,
-3.562000e+00,-0.004000,8.987500e+02,-78.400002,
-3.560000e+00,0.004000,9.000000e+02,-78.400002,
-3.558000e+00,-0.004000,9.012500e+02,-77.599998,
-3.556000e+00,0.004000,9.025000e+02,-77.599998,
-3.554000e+00,-0.004000,9.037500e+02,-79.199997,
-3.552000e+00,0.012000,9.050000e+02,-76.000000,
-3.550000e+00,-0.004000,9.062500e+02,-79.199997,
-3.548000e+00,-0.004000,9.075000e+02,-78.400002,
-3.546000e+00,0.008000,9.087500e+02,-80.800003,
-3.544000e+00,0.008000,9.100000e+02,-74.400002,
-3.542000e+00,-0.004000,9.112500e+02,-81.599998,
-3.540000e+00,0.008000,9.125000e+02,-71.199997,
-3.538000e+00,-0.004000,9.137500e+02,-84.800003,
-3.536000e+00,-0.004000,9.150000e+02,-73.599998,
-3.534000e+00,0.008000,9.162500e+02,-77.599998,
-3.532000e+00,0.008000,9.175000e+02,-73.599998,
-3.530000e+00,-0.004000,9.187500e+02,-77.599998,
-3.528000e+00,-0.004000,9.200000e+02,-85.599998,
-3.526000e+00,0.008000,9.212500e+02,-76.800003,
-3.524000e+00,0.008000,9.225000e+02,-76.000000,
-3.522000e+00,-0.004000,9.237500e+02,-80.800003,
-3.520000e+00,0.008000,9.250000e+02,-74.400002,
-3.518000e+00,0.000000,9.262500e+02,-75.199997,
-3.516000e+00,0.008000,9.275000e+02,-87.199997,
-3.514000e+00,0.000000,9.287500e+02,-80.800003,
-3.512000e+00,0.008000,9.300000e+02,-75.199997,
-3.510000e+00,0.000000,9.312500e+02,-79.199997,
-3.508000e+00,0.008000,9.325000e+02,-73.599998,
-3.506000e+00,0.000000,9.337500e+02,-88.800003,
-3.504000e+00,-0.004000,9.350000e+02,-72.800003,
-3.502000e+00,0.012000,9.362500e+02,-80.000000,
-3.500000e+00,0.000000,9.375000e+02,-84.000000,
-3.498000e+00,0.012000,9.387500e+02,-68.800003,
-3.496000e+00,0.012000,9.400000e+02,-74.400002,
-3.494000e+00,-0.004000,9.412500e+02,-76.000000,
-3.492000e+00,0.008000,9.425000e+02,-80.000000,
-3.490000e+00,0.000000,9.437500e+02,-76.000000,
-3.488000e+00,0.008000,9.450000e+02,-82.400002,
-3.486000e+00,0.000000,9.462500e+02,-72.000000,
-3.484000e+00,0.008000,9.475000e+02,-73.599998,
-3.482000e+00,0.000000,9.487500e+02,-72.000000,
-3.480000e+00,0.008000,9.500000e+02,-77.599998,
-3.478000e+00,0.000000,9.512500e+02,-80.800003,
-3.476000e+00,0.008000,9.525000e+02,-79.199997,
-3.474000e+00,0.000000,9.537500e+02,-74.400002,
-3.472000e+00,0.008000,9.550000e+02,-79.199997,
-3.470000e+00,0.000000,9.562500e+02,-73.599998,
-3.468000e+00,-0.004000,9.575000e+02,-88.000000,
-3.466000e+00,0.008000,9.587500e+02,-80.000000,
-3.464000e+00,0.008000,9.600000e+02,-71.199997,
-3.462000e+00,-0.004000,9.612500e+02,-73.599998,
-3.460000e+00,0.008000,9.625000e+02,-80.800003,
-3.458000e+00,-0.004000,9.637500e+02,-76.000000,
-3.456000e+00,0.004000,9.650000e+02,-85.599998,
-3.454000e+00,-0.004000,9.662500e+02,-82.400002,
-3.452000e+00,0.008000,9.675000e+02,-74.400002,
-3.450000e+00,-0.004000,9.687500e+02,-73.599998,
-3.448000e+00,0.008000,9.700000e+02,-80.000000,
-3.446000e+00,-0.004000,9.712500e+02,-74.400002,
-3.444000e+00,0.004000,9.725000e+02,-76.800003,
-3.442000e+00,-0.004000,9.737500e+02,-98.400002,
-3.440000e+00,0.004000,9.750000e+02,-84.000000,
-3.438000e+00,-0.004000,9.762500e+02,-79.199997,
-3.436000e+00,0.004000,9.775000e+02,-78.400002,
-3.434000e+00,-0.004000,9.787500e+02,-74.400002,
-3.432000e+00,0.008000,9.800000e+02,-76.000000,
-3.430000e+00,-0.004000,9.812500e+02,-79.199997,
-3.428000e+00,0.008000,9.825000e+02,-77.599998,
-3.426000e+00,-0.004000,9.837500e+02,-80.800003,
-3.424000e+00,0.004000,9.850000e+02,-70.400002,
-3.422000e+00,-0.004000,9.862500e+02,-71.199997,
-3.420000e+00,0.004000,9.875000e+02,-82.400002,
-3.418000e+00,-0.004000,9.887500e+02,-76.000000,
-3.416000e+00,0.008000,9.900000e+02,-73.599998,
-3.414000e+00,-0.004000,9.912500e+02,-78.400002,
-3.412000e+00,0.004000,9.925000e+02,-83.199997,
-3.410000e+00,-0.004000,9.937500e+02,-70.400002,
-3.408000e+00,-0.004000,9.950000e+02,-75.199997,
-3.406000e+00,0.008000,9.962500e+02,-76.800003,
-3.404000e+00,0.008000,9.975000e+02,-72.000000,
-3.402000e+00,-0.008000,9.987500e+02,-78.400002,
-3.400000e+00,0.008000,1.000000e+03,-73.599998,
-3.398000e+00,-0.008000,1.001250e+03,-84.000000,
-3.396000e+00,0.004000,1.002500e+03,-79.199997,
-3.394000e+00,-0.004000,1.003750e+03,-79.199997,
-3.392000e+00,0.004000,1.005000e+03,-83.199997,
-3.390000e+00,-0.004000,1.006250e+03,-79.199997,
-3.388000e+00,0.008000,1.007500e+03,-79.199997,
-3.386000e+00,-0.004000,1.008750e+03,-75.199997,
-3.384000e+00,0.004000,1.010000e+03,-78.400002,
-3.382000e+00,-0.004000,1.011250e+03,-78.400002,
-3.380000e+00,0.004000,1.012500e+03,-74.400002,
-3.378000e+00,-0.004000,1.013750e+03,-80.800003,
-3.376000e+00,0.004000,1.015000e+03,-74.400002,
-3.374000e+00,-0.004000,1.016250e+03,-71.199997,
-3.372000e+00,0.004000,1.017500e+03,-84.000000,
-3.370000e+00,-0.004000,1.018750e+03,-78.400002,
-3.368000e+00,0.004000,1.020000e+03,-72.000000,
-3.366000e+00,-0.004000,1.021250e+03,-79.199997,
-3.364000e+00,0.004000,1.022500e+03,-84.000000,
-3.362000e+00,-0.004000,1.023750e+03,-79.199997,
-3.360000e+00,0.004000,1.025000e+03,-81.599998,
-3.358000e+00,-0.004000,1.026250e+03,-77.599998,
-3.356000e+00,0.004000,1.027500e+03,-81.599998,
-3.354000e+00,-0.004000,1.028750e+03,-73.599998,
-3.352000e+00,0.008000,1.030000e+03,-74.400002,
-3.350000e+00,-0.004000,1.031250e+03,-79.199997,
-3.348000e+00,0.008000,1.032500e+03,-76.800003,
-3.346000e+00,-0.004000,1.033750e+03,-73.599998,
-3.344000e+00,0.008000,1.035000e+03,-79.199997,
-3.342000e+00,-0.004000,1.036250e+03,-79.199997,
-3.340000e+00,0.008000,1.037500e+03,-81.599998,
-3.338000e+00,-0.004000,1.038750e+03,-77.599998,
-3.336000e+00,-0.004000,1.040000e+03,-78.400002,
-3.334000e+00,0.008000,1.041250e+03,-80.800003,
-3.332000e+00,0.008000,1.042500e+03,-87.199997,
-3.330000e+00,0.000000,1.043750e+03,-73.599998,
-3.328000e+00,0.008000,1.045000e+03,-78.400002,
-3.326000e+00,0.000000,1.046250e+03,-68.800003,
-3.324000e+00,0.008000,1.047500e+03,-71.199997,
-3.322000e+00,0.000000,1.048750e+03,-79.199997,
-3.320000e+00,0.012000,1.050000e+03,-72.000000,
-3.318000e+00,0.000000,1.051250e+03,-72.000000,
-3.316000e+00,0.000000,1.052500e+03,-76.000000,
-3.314000e+00,0.012000,1.053750e+03,-76.000000,
-3.312000e+00,0.012000,1.055000e+03,-77.599998,
-3.310000e+00,0.000000,1.056250e+03,-80.000000,
-3.308000e+00,0.012000,1.057500e+03,-75.199997,
-3.306000e+00,0.004000,1.058750e+03,-73.599998,
-3.304000e+00,0.008000,1.060000e+03,-72.800003,
-3.302000e+00,0.004000,1.061250e+03,-74.400002,
-3.300000e+00,0.000000,1.062500e+03,-80.000000,
-3.298000e+00,0.012000,1.063750e+03,-81.599998,
-3.296000e+00,0.012000,1.065000e+03,-84.800003,
-3.294000e+00,0.004000,1.066250e+03,-72.000000,
-3.292000e+00,0.012000,1.067500e+03,-77.599998,
-3.290000e+00,0.004000,1.068750e+03,-76.000000,
-3.288000e+00,0.012000,1.070000e+03,-85.599998,
-3.286000e+00,0.004000,1.071250e+03,-78.400002,
-3.284000e+00,0.012000,1.072500e+03,-94.400002,
-3.282000e+00,0.004000,1.073750e+03,-77.599998,
-3.280000e+00,0.012000,1.075000e+03,-71.199997,
-3.278000e+00,0.004000,1.076250e+03,-71.199997,
-3.276000e+00,0.012000,1.077500e+03,-84.000000,
-3.274000e+00,0.000000,1.078750e+03,-75.199997,
-3.272000e+00,0.012000,1.080000e+03,-81.599998,
-3.270000e+00,0.004000,1.081250e+03,-72.800003,
-3.268000e+00,0.012000,1.082500e+03,-80.800003,
-3.266000e+00,0.004000,1.083750e+03,-77.599998,
-3.264000e+00,0.012000,1.085000e+03,-83.199997,
-3.262000e+00,0.004000,1.086250e+03,-84.000000,
-3.260000e+00,0.012000,1.087500e+03,-79.199997,
-3.258000e+00,0.004000,1.088750e+03,-76.000000,
-3.256000e+00,0.012000,1.090000e+03,-73.599998,
-3.254000e+00,0.004000,1.091250e+03,-92.000000,
-3.252000e+00,0.016000,1.092500e+03,-74.400002,
-3.250000e+00,0.008000,1.093750e+03,-73.599998,
-3.248000e+00,0.016000,1.095000e+03,-76.000000,
-3.246000e+00,0.008000,1.096250e+03,-79.199997,
-3.244000e+00,0.016000,1.097500e+03,-83.199997,
-3.242000e+00,0.008000,1.098750e+03,-96.800003,
-3.240000e+00,0.016000,1.100000e+03,-76.800003,
-3.238000e+00,0.008000,1.101250e+03,-73.599998,
-3.236000e+00,0.016000,1.102500e+03,-72.800003,
-3.234000e+00,0.004000,1.103750e+03,-87.199997,
-3.232000e+00,0.016000,1.105000e+03,-88.000000,
-3.230000e+00,0.008000,1.106250e+03,-76.800003,
-3.228000e+00,0.016000,1.107500e+03,-77.599998,
-3.226000e+00,0.008000,1.108750e+03,-86.400002,
-3.224000e+00,0.008000,1.110000e+03,-82.400002,
-3.222000e+00,0.020000,1.111250e+03,-76.800003,
-3.220000e+00,0.020000,1.112500e+03,-76.000000,
-3.218000e+00,0.008000,1.113750e+03,-72.000000,
-3.216000e+00,0.020000,1.115000e+03,-76.800003,
-3.214000e+00,0.012000,1.116250e+03,-76.800003,
-3.212000e+00,0.020000,1.117500e+03,-84.000000,
-3.210000e+00,0.008000,1.118750e+03,-78.400002,
-3.208000e+00,0.020000,1.120000e+03,-68.000000,
-3.206000e+00,0.012000,1.121250e+03,-83.199997,
-3.204000e+00,0.020000,1.122500e+03,-102.400002,
-3.202000e+00,0.012000,1.123750e+03,-73.599998,
-3.200000e+00,0.024000,1.125000e+03,-72.000000,
-3.198000e+00,0.012000,1.126250e+03,-80.800003,
-3.196000e+00,0.020000,1.127500e+03,-75.199997,
-3.194000e+00,0.008000,1.128750e+03,-87.199997,
-3.192000e+00,0.020000,1.130000e+03,-71.199997,
-3.190000e+00,0.012000,1.131250e+03,-98.400002,
-3.188000e+00,0.024000,1.132500e+03,-79.199997,
-3.186000e+00,0.012000,1.133750e+03,-76.800003,
-3.184000e+00,0.020000,1.135000e+03,-75.199997,
-3.182000e+00,0.012000,1.136250e+03,-90.400002,
-3.180000e+00,0.020000,1.137500e+03,-72.800003,
-3.178000e+00,0.012000,1.138750e+03,-81.599998,
-3.176000e+00,0.020000,1.140000e+03,-72.800003,
-3.174000e+00,0.008000,1.141250e+03,-84.800003,
-3.172000e+00,0.020000,1.142500e+03,-70.400002,
-3.170000e+00,0.012000,1.143750e+03,-76.800003,
-3.168000e+00,0.020000,1.145000e+03,-75.199997,
-3.166000e+00,0.012000,1.146250e+03,-74.400002,
-3.164000e+00,0.016000,1.147500e+03,-68.800003,
-3.162000e+00,0.012000,1.148750e+03,-80.800003,
-3.160000e+00,0.020000,1.150000e+03,-72.800003,
-3.158000e+00,0.008000,1.151250e+03,-76.800003,
-3.156000e+00,0.020000,1.152500e+03,-81.599998,
-3.154000e+00,0.008000,1.153750e+03,-80.000000,
-3.152000e+00,0.016000,1.155000e+03,-72.800003,
-3.150000e+00,0.008000,1.156250e+03,-71.199997,
-3.148000e+00,0.016000,1.157500e+03,-80.000000,
-3.146000e+00,0.008000,1.158750e+03,-85.599998,
-3.144000e+00,0.016000,1.160000e+03,-76.800003,
-3.142000e+00,0.008000,1.161250e+03,-80.000000,
-3.140000e+00,0.016000,1.162500e+03,-84.800003,
-3.138000e+00,0.008000,1.163750e+03,-76.800003,
-3.136000e+00,0.016000,1.165000e+03,-77.599998,
-3.134000e+00,0.008000,1.166250e+03,-76.800003,
-3.132000e+00,0.016000,1.167500e+03,-76.000000,
-3.130000e+00,0.008000,1.168750e+03,-70.400002,
-3.128000e+00,0.016000,1.170000e+03,-72.800003,
-3.126000e+00,0.008000,1.171250e+03,-76.800003,
-3.124000e+00,0.016000,1.172500e+03,-80.800003,
-3.122000e+00,0.008000,1.173750e+03,-81.599998,
-3.120000e+00,0.020000,1.175000e+03,-77.599998,
-3.118000e+00,0.008000,1.176250e+03,-81.599998,
-3.116000e+00,0.016000,1.177500e+03,-70.400002,
-3.114000e+00,0.004000,1.178750e+03,-72.000000,
-3.112000e+00,0.016000,1.180000e+03,-94.400002,
-3.110000e+00,0.008000,1.181250e+03,-76.000000,
-3.108000e+00,0.016000,1.182500e+03,-77.599998,
-3.106000e+00,0.008000,1.183750e+03,-79.199997,
-3.104000e+00,0.020000,1.185000e+03,-76.000000,
-3.102000e+00,0.004000,1.186250e+03,-71.199997,
-3.100000e+00,0.020000,1.187500e+03,-76.000000,
-3.098000e+00,0.008000,1.188750e+03,-72.000000,
-3.096000e+00,0.016000,1.190000e+03,-80.800003,
-3.094000e+00,0.004000,1.191250e+03,-73.599998,
-3.092000e+00,0.024000,1.192500e+03,-80.000000,
-3.090000e+00,0.008000,1.193750e+03,-70.400002,
-3.088000e+00,0.016000,1.195000e+03,-72.800003,
-3.086000e+00,0.008000,1.196250e+03,-75.199997,
-3.084000e+00,0.016000,1.197500e+03,-84.800003,
-3.082000e+00,0.008000,1.198750e+03,-78.400002,
-3.080000e+00,0.016000,1.200000e+03,-78.400002,
-3.078000e+00,0.008000,1.201250e+03,-73.599998,
-3.076000e+00,0.016000,1.202500e+03,-72.000000,
-3.074000e+00,0.008000,1.203750e+03,-81.599998,
-3.072000e+00,0.016000,1.205000e+03,-77.599998,
-3.070000e+00,0.008000,1.206250e+03,-73.599998,
-3.068000e+00,0.016000,1.207500e+03,-72.000000,
-3.066000e+00,0.008000,1.208750e+03,-86.400002,
-3.064000e+00,0.016000,1.210000e+03,-74.400002,
-3.062000e+00,0.008000,1.211250e+03,-78.400002,
-3.060000e+00,0.016000,1.212500e+03,-75.199997,
-3.058000e+00,0.008000,1.213750e+03,-73.599998,
-3.056000e+00,0.008000,1.215000e+03,-78.400002,
-3.054000e+00,0.020000,1.216250e+03,-81.599998,
-3.052000e+00,0.020000,1.217500e+03,-78.400002,
-3.050000e+00,0.008000,1.218750e+03,-72.000000,
-3.048000e+00,0.016000,1.220000e+03,-75.199997,
-3.046000e+00,0.008000,1.221250e+03,-80.800003,
-3.044000e+00,0.016000,1.222500e+03,-67.199997,
-3.042000e+00,0.004000,1.223750e+03,-78.400002,
-3.040000e+00,0.016000,1.225000e+03,-76.000000,
-3.038000e+00,0.008000,1.226250e+03,-70.400002,
-3.036000e+00,0.016000,1.227500e+03,-78.400002,
-3.034000e+00,0.008000,1.228750e+03,-76.000000,
-3.032000e+00,0.016000,1.230000e+03,-71.199997,
-3.030000e+00,0.008000,1.231250e+03,-78.400002,
-3.028000e+00,0.016000,1.232500e+03,-76.000000,
-3.026000e+00,0.008000,1.233750e+03,-74.400002,
-3.024000e+00,0.016000,1.235000e+03,-84.800003,
-3.022000e+00,0.008000,1.236250e+03,-68.800003,
-3.020000e+00,0.016000,1.237500e+03,-76.000000,
-3.018000e+00,0.008000,1.238750e+03,-84.000000,
-3.016000e+00,0.020000,1.240000e+03,-73.599998,
-3.014000e+00,0.008000,1.241250e+03,-68.000000,
-3.012000e+00,0.020000,1.242500e+03,-73.599998,
-3.010000e+00,0.004000,1.243750e+03,-77.599998,
-3.008000e+00,0.016000,1.245000e+03,-88.800003,
-3.006000e+00,0.012000,1.246250e+03,-84.800003,
-3.004000e+00,0.020000,1.247500e+03,-76.800003,
-3.002000e+00,0.008000,1.248750e+03,-72.800003,
-3.000000e+00,0.020000,
-2.998000e+00,0.004000,
-2.996000e+00,0.020000,
-2.994000e+00,0.012000,
-2.992000e+00,0.020000,
-2.990000e+00,0.008000,
-2.988000e+00,0.020000,
-2.986000e+00,0.008000,
-2.984000e+00,0.020000,
-2.982000e+00,0.012000,
-2.980000e+00,0.020000,
-2.978000e+00,0.012000,
-2.976000e+00,0.020000,
-2.974000e+00,0.008000,
-2.972000e+00,0.020000,
-2.970000e+00,0.012000,
-2.968000e+00,0.020000,
-2.966000e+00,0.012000,
-2.964000e+00,0.020000,
-2.962000e+00,0.008000,
-2.960000e+00,0.020000,
-2.958000e+00,0.012000,
-2.956000e+00,0.020000,
-2.954000e+00,0.008000,
-2.952000e+00,0.024000,
-2.950000e+00,0.008000,
-2.948000e+00,0.020000,
-2.946000e+00,0.012000,
-2.944000e+00,0.020000,
-2.942000e+00,0.012000,
-2.940000e+00,0.020000,
-2.938000e+00,0.012000,
-2.936000e+00,0.020000,
-2.934000e+00,0.012000,
-2.932000e+00,0.020000,
-2.930000e+00,0.012000,
-2.928000e+00,0.020000,
-2.926000e+00,0.012000,
-2.924000e+00,0.020000,
-2.922000e+00,0.012000,
-2.920000e+00,0.020000,
-2.918000e+00,0.012000,
-2.916000e+00,0.020000,
-2.914000e+00,0.008000,
-2.912000e+00,0.020000,
-2.910000e+00,0.008000,
-2.908000e+00,0.020000,
-2.906000e+00,0.012000,
-2.904000e+00,0.024000,
-2.902000e+00,0.008000,
-2.900000e+00,0.008000,
-2.898000e+00,0.024000,
-2.896000e+00,0.024000,
-2.894000e+00,0.012000,
-2.892000e+00,0.020000,
-2.890000e+00,0.012000,
-2.888000e+00,0.020000,
-2.886000e+00,0.012000,
-2.884000e+00,0.024000,
-2.882000e+00,0.012000,
-2.880000e+00,0.024000,
-2.878000e+00,0.012000,
-2.876000e+00,0.024000,
-2.874000e+00,0.016000,
-2.872000e+00,0.024000,
-2.870000e+00,0.012000,
-2.868000e+00,0.024000,
-2.866000e+00,0.016000,
-2.864000e+00,0.024000,
-2.862000e+00,0.016000,
-2.860000e+00,0.024000,
-2.858000e+00,0.016000,
-2.856000e+00,0.024000,
-2.854000e+00,0.016000,
-2.852000e+00,0.028000,
-2.850000e+00,0.016000,
-2.848000e+00,0.028000,
-2.846000e+00,0.016000,
-2.844000e+00,0.016000,
-2.842000e+00,0.028000,
-2.840000e+00,0.028000,
-2.838000e+00,0.020000,
-2.836000e+00,0.028000,
-2.834000e+00,0.020000,
-2.832000e+00,0.028000,
-2.830000e+00,0.016000,
-2.828000e+00,0.028000,
-2.826000e+00,0.020000,
-2.824000e+00,0.032000,
-2.822000e+00,0.020000,
-2.820000e+00,0.032000,
-2.818000e+00,0.020000,
-2.816000e+00,0.028000,
-2.814000e+00,0.020000,
-2.812000e+00,0.032000,
-2.810000e+00,0.024000,
-2.808000e+00,0.020000,
-2.806000e+00,0.032000,
-2.804000e+00,0.032000,
-2.802000e+00,0.020000,
-2.800000e+00,0.032000,
-2.798000e+00,0.020000,
-2.796000e+00,0.032000,
-2.794000e+00,0.020000,
-2.792000e+00,0.028000,
-2.790000e+00,0.020000,
-2.788000e+00,0.032000,
-2.786000e+00,0.020000,
-2.784000e+00,0.028000,
-2.782000e+00,0.020000,
-2.780000e+00,0.032000,
-2.778000e+00,0.020000,
-2.776000e+00,0.028000,
-2.774000e+00,0.020000,
-2.772000e+00,0.032000,
-2.770000e+00,0.020000,
-2.768000e+00,0.028000,
-2.766000e+00,0.020000,
-2.764000e+00,0.032000,
-2.762000e+00,0.020000,
-2.760000e+00,0.032000,
-2.758000e+00,0.020000,
-2.756000e+00,0.028000,
-2.754000e+00,0.020000,
-2.752000e+00,0.020000,
-2.750000e+00,0.032000,
-2.748000e+00,0.028000,
-2.746000e+00,0.020000,
-2.744000e+00,0.032000,
-2.742000e+00,0.024000,
-2.740000e+00,0.020000,
-2.738000e+00,0.032000,
-2.736000e+00,0.032000,
-2.734000e+00,0.024000,
-2.732000e+00,0.032000,
-2.730000e+00,0.020000,
-2.728000e+00,0.032000,
-2.726000e+00,0.024000,
-2.724000e+00,0.032000,
-2.722000e+00,0.024000,
-2.720000e+00,0.032000,
-2.718000e+00,0.020000,
-2.716000e+00,0.036000,
-2.714000e+00,0.024000,
-2.712000e+00,0.032000,
-2.710000e+00,0.024000,
-2.708000e+00,0.032000,
-2.706000e+00,0.024000,
-2.704000e+00,0.036000,
-2.702000e+00,0.020000,
-2.700000e+00,0.024000,
-2.698000e+00,0.036000,
-2.696000e+00,0.020000,
-2.694000e+00,0.036000,
-2.692000e+00,0.036000,
-2.690000e+00,0.024000,
-2.688000e+00,0.036000,
-2.686000e+00,0.024000,
-2.684000e+00,0.036000,
-2.682000e+00,0.028000,
-2.680000e+00,0.036000,
-2.678000e+00,0.024000,
-2.676000e+00,0.036000,
-2.674000e+00,0.028000,
-2.672000e+00,0.036000,
-2.670000e+00,0.028000,
-2.668000e+00,0.036000,
-2.666000e+00,0.028000,
-2.664000e+00,0.040000,
-2.662000e+00,0.028000,
-2.660000e+00,0.036000,
-2.658000e+00,0.028000,
-2.656000e+00,0.036000,
-2.654000e+00,0.028000,
-2.652000e+00,0.040000,
-2.650000e+00,0.028000,
-2.648000e+00,0.036000,
-2.646000e+00,0.028000,
-2.644000e+00,0.040000,
-2.642000e+00,0.028000,
-2.640000e+00,0.040000,
-2.638000e+00,0.028000,
-2.636000e+00,0.040000,
-2.634000e+00,0.032000,
-2.632000e+00,0.040000,
-2.630000e+00,0.032000,
-2.628000e+00,0.040000,
-2.626000e+00,0.032000,
-2.624000e+00,0.044000,
-2.622000e+00,0.032000,
-2.620000e+00,0.040000,
-2.618000e+00,0.032000,
-2.616000e+00,0.040000,
-2.614000e+00,0.032000,
-2.612000e+00,0.040000,
-2.610000e+00,0.032000,
-2.608000e+00,0.044000,
-2.606000e+00,0.032000,
-2.604000e+00,0.040000,
-2.602000e+00,0.028000,
-2.600000e+00,0.044000,
-2.598000e+00,0.028000,
-2.596000e+00,0.040000,
-2.594000e+00,0.032000,
-2.592000e+00,0.044000,
-2.590000e+00,0.032000,
-2.588000e+00,0.036000,
-2.586000e+00,0.028000,
-2.584000e+00,0.040000,
-2.582000e+00,0.028000,
-2.580000e+00,0.036000,
-2.578000e+00,0.028000,
-2.576000e+00,0.036000,
-2.574000e+00,0.028000,
-2.572000e+00,0.036000,
-2.570000e+00,0.028000,
-2.568000e+00,0.036000,
-2.566000e+00,0.028000,
-2.564000e+00,0.036000,
-2.562000e+00,0.024000,
-2.560000e+00,0.024000,
-2.558000e+00,0.036000,
-2.556000e+00,0.036000,
-2.554000e+00,0.028000,
-2.552000e+00,0.036000,
-2.550000e+00,0.020000,
-2.548000e+00,0.036000,
-2.546000e+00,0.020000,
-2.544000e+00,0.032000,
-2.542000e+00,0.024000,
-2.540000e+00,0.032000,
-2.538000e+00,0.024000,
-2.536000e+00,0.032000,
-2.534000e+00,0.024000,
-2.532000e+00,0.032000,
-2.530000e+00,0.024000,
-2.528000e+00,0.032000,
-2.526000e+00,0.024000,
-2.524000e+00,0.032000,
-2.522000e+00,0.024000,
-2.520000e+00,0.032000,
-2.518000e+00,0.024000,
-2.516000e+00,0.032000,
-2.514000e+00,0.024000,
-2.512000e+00,0.032000,
-2.510000e+00,0.024000,
-2.508000e+00,0.032000,
-2.506000e+00,0.020000,
-2.504000e+00,0.032000,
-2.502000e+00,0.020000,
-2.500000e+00,0.020000,
-2.498000e+00,0.032000,
-2.496000e+00,0.028000,
-2.494000e+00,0.020000,
-2.492000e+00,0.028000,
-2.490000e+00,0.020000,
-2.488000e+00,0.028000,
-2.486000e+00,0.020000,
-2.484000e+00,0.028000,
-2.482000e+00,0.020000,
-2.480000e+00,0.028000,
-2.478000e+00,0.020000,
-2.476000e+00,0.028000,
-2.474000e+00,0.020000,
-2.472000e+00,0.028000,
-2.470000e+00,0.020000,
-2.468000e+00,0.028000,
-2.466000e+00,0.020000,
-2.464000e+00,0.028000,
-2.462000e+00,0.016000,
-2.460000e+00,0.028000,
-2.458000e+00,0.020000,
-2.456000e+00,0.028000,
-2.454000e+00,0.016000,
-2.452000e+00,0.028000,
-2.450000e+00,0.016000,
-2.448000e+00,0.028000,
-2.446000e+00,0.016000,
-2.444000e+00,0.028000,
-2.442000e+00,0.016000,
-2.440000e+00,0.028000,
-2.438000e+00,0.020000,
-2.436000e+00,0.028000,
-2.434000e+00,0.020000,
-2.432000e+00,0.028000,
-2.430000e+00,0.020000,
-2.428000e+00,0.028000,
-2.426000e+00,0.020000,
-2.424000e+00,0.028000,
-2.422000e+00,0.016000,
-2.420000e+00,0.028000,
-2.418000e+00,0.020000,
-2.416000e+00,0.024000,
-2.414000e+00,0.016000,
-2.412000e+00,0.028000,
-2.410000e+00,0.016000,
-2.408000e+00,0.024000,
-2.406000e+00,0.016000,
-2.404000e+00,0.024000,
-2.402000e+00,0.016000,
-2.400000e+00,0.024000,
-2.398000e+00,0.008000,
-2.396000e+00,0.024000,
-2.394000e+00,0.012000,
-2.392000e+00,0.024000,
-2.390000e+00,0.012000,
-2.388000e+00,0.020000,
-2.386000e+00,0.012000,
-2.384000e+00,0.020000,
-2.382000e+00,0.008000,
-2.380000e+00,0.020000,
-2.378000e+00,0.008000,
-2.376000e+00,0.020000,
-2.374000e+00,0.008000,
-2.372000e+00,0.020000,
-2.370000e+00,0.008000,
-2.368000e+00,0.016000,
-2.366000e+00,0.008000,
-2.364000e+00,0.016000,
-2.362000e+00,0.008000,
-2.360000e+00,0.012000,
-2.358000e+00,0.008000,
-2.356000e+00,0.012000,
-2.354000e+00,0.004000,
-2.352000e+00,0.000000,
-2.350000e+00,0.016000,
-2.348000e+00,0.012000,
-2.346000e+00,0.004000,
-2.344000e+00,0.012000,
-2.342000e+00,0.004000,
-2.340000e+00,0.012000,
-2.338000e+00,0.000000,
-2.336000e+00,0.012000,
-2.334000e+00,0.004000,
-2.332000e+00,0.008000,
-2.330000e+00,0.004000,
-2.328000e+00,0.008000,
-2.326000e+00,0.000000,
-2.324000e+00,0.008000,
-2.322000e+00,0.000000,
-2.320000e+00,0.008000,
-2.318000e+00,0.000000,
-2.316000e+00,0.008000,
-2.314000e+00,0.000000,
-2.312000e+00,0.008000,
-2.310000e+00,0.000000,
-2.308000e+00,0.008000,
-2.306000e+00,0.000000,
-2.304000e+00,0.012000,
-2.302000e+00,0.000000,
-2.300000e+00,0.008000,
-2.298000e+00,0.000000,
-2.296000e+00,0.008000,
-2.294000e+00,-0.004000,
-2.292000e+00,-0.004000,
-2.290000e+00,0.008000,
-2.288000e+00,0.008000,
-2.286000e+00,0.000000,
-2.284000e+00,0.008000,
-2.282000e+00,-0.004000,
-2.280000e+00,-0.004000,
-2.278000e+00,0.008000,
-2.276000e+00,0.004000,
-2.274000e+00,-0.004000,
-2.272000e+00,0.004000,
-2.270000e+00,-0.004000,
-2.268000e+00,0.004000,
-2.266000e+00,-0.004000,
-2.264000e+00,0.004000,
-2.262000e+00,-0.004000,
-2.260000e+00,0.008000,
-2.258000e+00,-0.004000,
-2.256000e+00,0.004000,
-2.254000e+00,-0.004000,
-2.252000e+00,0.004000,
-2.250000e+00,-0.004000,
-2.248000e+00,-0.008000,
-2.246000e+00,0.008000,
-2.244000e+00,0.004000,
-2.242000e+00,-0.004000,
-2.240000e+00,0.008000,
-2.238000e+00,-0.004000,
-2.236000e+00,0.004000,
-2.234000e+00,-0.004000,
-2.232000e+00,-0.004000,
-2.230000e+00,0.008000,
-2.228000e+00,0.008000,
-2.226000e+00,-0.004000,
-2.224000e+00,0.008000,
-2.222000e+00,0.000000,
-2.220000e+00,0.008000,
-2.218000e+00,0.000000,
-2.216000e+00,0.008000,
-2.214000e+00,0.000000,
-2.212000e+00,0.012000,
-2.210000e+00,0.000000,
-2.208000e+00,0.012000,
-2.206000e+00,0.000000,
-2.204000e+00,0.012000,
-2.202000e+00,0.004000,
-2.200000e+00,0.012000,
-2.198000e+00,0.004000,
-2.196000e+00,0.012000,
-2.194000e+00,0.004000,
-2.192000e+00,0.012000,
-2.190000e+00,0.004000,
-2.188000e+00,0.012000,
-2.186000e+00,0.004000,
-2.184000e+00,0.012000,
-2.182000e+00,0.004000,
-2.180000e+00,0.012000,
-2.178000e+00,0.000000,
-2.176000e+00,0.012000,
-2.174000e+00,0.004000,
-2.172000e+00,0.012000,
-2.170000e+00,0.004000,
-2.168000e+00,0.012000,
-2.166000e+00,0.004000,
-2.164000e+00,0.012000,
-2.162000e+00,0.004000,
-2.160000e+00,0.016000,
-2.158000e+00,0.004000,
-2.156000e+00,0.016000,
-2.154000e+00,0.004000,
-2.152000e+00,0.012000,
-2.150000e+00,0.004000,
-2.148000e+00,0.012000,
-2.146000e+00,0.004000,
-2.144000e+00,0.012000,
-2.142000e+00,0.004000,
-2.140000e+00,0.012000,
-2.138000e+00,0.000000,
-2.136000e+00,0.012000,
-2.134000e+00,0.004000,
-2.132000e+00,0.012000,
-2.130000e+00,0.004000,
-2.128000e+00,0.008000,
-2.126000e+00,0.000000,
-2.124000e+00,0.008000,
-2.122000e+00,0.000000,
-2.120000e+00,0.008000,
-2.118000e+00,0.000000,
-2.116000e+00,0.008000,
-2.114000e+00,0.000000,
-2.112000e+00,0.008000,
-2.110000e+00,-0.004000,
-2.108000e+00,0.004000,
-2.106000e+00,0.000000,
-2.104000e+00,0.008000,
-2.102000e+00,-0.004000,
-2.100000e+00,0.004000,
-2.098000e+00,-0.004000,
-2.096000e+00,-0.004000,
-2.094000e+00,0.008000,
-2.092000e+00,0.004000,
-2.090000e+00,-0.004000,
-2.088000e+00,0.004000,
-2.086000e+00,-0.008000,
-2.084000e+00,0.000000,
-2.082000e+00,-0.008000,
-2.080000e+00,0.004000,
-2.078000e+00,-0.012000,
-2.076000e+00,0.004000,
-2.074000e+00,-0.008000,
-2.072000e+00,0.000000,
-2.070000e+00,-0.008000,
-2.068000e+00,0.000000,
-2.066000e+00,-0.012000,
-2.064000e+00,0.000000,
-2.062000e+00,-0.008000,
-2.060000e+00,0.000000,
-2.058000e+00,-0.008000,
-2.056000e+00,0.000000,
-2.054000e+00,-0.008000,
-2.052000e+00,0.004000,
-2.050000e+00,-0.008000,
-2.048000e+00,-0.008000,
-2.046000e+00,0.008000,
-2.044000e+00,0.004000,
-2.042000e+00,-0.008000,
-2.040000e+00,-0.004000,
-2.038000e+00,0.008000,
-2.036000e+00,0.008000,
-2.034000e+00,0.000000,
-2.032000e+00,0.000000,
-2.030000e+00,0.012000,
-2.028000e+00,0.012000,
-2.026000e+00,0.004000,
-2.024000e+00,0.016000,
-2.022000e+00,0.008000,
-2.020000e+00,0.020000,
-2.018000e+00,0.012000,
-2.016000e+00,0.016000,
-2.014000e+00,0.028000,
-2.012000e+00,0.020000,
-2.010000e+00,0.032000,
-2.008000e+00,0.036000,
-2.006000e+00,0.028000,
-2.004000e+00,0.032000,
-2.002000e+00,0.052000,
-2.000000e+00,0.032000,
-1.998000e+00,0.048000,
-1.996000e+00,0.040000,
-1.994000e+00,0.056000,
-1.992000e+00,0.048000,
-1.990000e+00,0.060000,
-1.988000e+00,0.056000,
-1.986000e+00,0.068000,
-1.984000e+00,0.064000,
-1.982000e+00,0.072000,
-1.980000e+00,0.068000,
-1.978000e+00,0.084000,
-1.976000e+00,0.076000,
-1.974000e+00,0.088000,
-1.972000e+00,0.084000,
-1.970000e+00,0.096000,
-1.968000e+00,0.092000,
-1.966000e+00,0.104000,
-1.964000e+00,0.108000,
-1.962000e+00,0.096000,
-1.960000e+00,0.104000,
-1.958000e+00,0.116000,
-1.956000e+00,0.108000,
-1.954000e+00,0.124000,
-1.952000e+00,0.116000,
-1.950000e+00,0.128000,
-1.948000e+00,0.132000,
-1.946000e+00,0.124000,
-1.944000e+00,0.136000,
-1.942000e+00,0.124000,
-1.940000e+00,0.132000,
-1.938000e+00,0.144000,
-1.936000e+00,0.144000,
-1.934000e+00,0.136000,
-1.932000e+00,0.148000,
-1.930000e+00,0.140000,
-1.928000e+00,0.140000,
-1.926000e+00,0.152000,
-1.924000e+00,0.144000,
-1.922000e+00,0.156000,
-1.920000e+00,0.152000,
-1.918000e+00,0.144000,
-1.916000e+00,0.152000,
-1.914000e+00,0.144000,
-1.912000e+00,0.152000,
-1.910000e+00,0.144000,
-1.908000e+00,0.152000,
-1.906000e+00,0.144000,
-1.904000e+00,0.152000,
-1.902000e+00,0.144000,
-1.900000e+00,0.152000,
-1.898000e+00,0.136000,
-1.896000e+00,0.148000,
-1.894000e+00,0.136000,
-1.892000e+00,0.148000,
-1.890000e+00,0.136000,
-1.888000e+00,0.140000,
-1.886000e+00,0.132000,
-1.884000e+00,0.140000,
-1.882000e+00,0.128000,
-1.880000e+00,0.136000,
-1.878000e+00,0.124000,
-1.876000e+00,0.132000,
-1.874000e+00,0.124000,
-1.872000e+00,0.132000,
-1.870000e+00,0.120000,
-1.868000e+00,0.124000,
-1.866000e+00,0.116000,
-1.864000e+00,0.120000,
-1.862000e+00,0.108000,
-1.860000e+00,0.116000,
-1.858000e+00,0.104000,
-1.856000e+00,0.112000,
-1.854000e+00,0.100000,
-1.852000e+00,0.108000,
-1.850000e+00,0.096000,
-1.848000e+00,0.104000,
-1.846000e+00,0.088000,
-1.844000e+00,0.100000,
-1.842000e+00,0.088000,
-1.840000e+00,0.096000,
-1.838000e+00,0.084000,
-1.836000e+00,0.088000,
-1.834000e+00,0.080000,
-1.832000e+00,0.088000,
-1.830000e+00,0.076000,
-1.828000e+00,0.080000,
-1.826000e+00,0.072000,
-1.824000e+00,0.076000,
-1.822000e+00,0.068000,
-1.820000e+00,0.076000,
-1.818000e+00,0.064000,
-1.816000e+00,0.068000,
-1.814000e+00,0.056000,
-1.812000e+00,0.064000,
-1.810000e+00,0.052000,
-1.808000e+00,0.060000,
-1.806000e+00,0.052000,
-1.804000e+00,0.060000,
-1.802000e+00,0.048000,
-1.800000e+00,0.056000,
-1.798000e+00,0.040000,
-1.796000e+00,0.056000,
-1.794000e+00,0.040000,
-1.792000e+00,0.044000,
-1.790000e+00,0.036000,
-1.788000e+00,0.044000,
-1.786000e+00,0.032000,
-1.784000e+00,0.036000,
-1.782000e+00,0.032000,
-1.780000e+00,0.036000,
-1.778000e+00,0.024000,
-1.776000e+00,0.032000,
-1.774000e+00,0.024000,
-1.772000e+00,0.032000,
-1.770000e+00,0.020000,
-1.768000e+00,0.028000,
-1.766000e+00,0.020000,
-1.764000e+00,0.028000,
-1.762000e+00,0.016000,
-1.760000e+00,0.024000,
-1.758000e+00,0.016000,
-1.756000e+00,0.024000,
-1.754000e+00,0.016000,
-1.752000e+00,0.024000,
-1.750000e+00,0.012000,
-1.748000e+00,0.020000,
-1.746000e+00,0.012000,
-1.744000e+00,0.020000,
-1.742000e+00,0.004000,
-1.740000e+00,0.016000,
-1.738000e+00,0.008000,
-1.736000e+00,0.016000,
-1.734000e+00,0.008000,
-1.732000e+00,0.012000,
-1.730000e+00,0.004000,
-1.728000e+00,0.012000,
-1.726000e+00,0.004000,
-1.724000e+00,0.012000,
-1.722000e+00,0.000000,
-1.720000e+00,0.012000,
-1.718000e+00,0.004000,
-1.716000e+00,0.008000,
-1.714000e+00,0.000000,
-1.712000e+00,0.008000,
-1.710000e+00,0.000000,
-1.708000e+00,0.008000,
-1.706000e+00,0.000000,
-1.704000e+00,0.008000,
-1.702000e+00,-0.004000,
-1.700000e+00,0.008000,
-1.698000e+00,-0.004000,
-1.696000e+00,0.008000,
-1.694000e+00,-0.004000,
-1.692000e+00,0.008000,
-1.690000e+00,-0.008000,
-1.688000e+00,0.008000,
-1.686000e+00,0.000000,
-1.684000e+00,0.008000,
-1.682000e+00,0.000000,
-1.680000e+00,0.008000,
-1.678000e+00,0.000000,
-1.676000e+00,0.008000,
-1.674000e+00,-0.004000,
-1.672000e+00,0.004000,
-1.670000e+00,-0.004000,
-1.668000e+00,0.004000,
-1.666000e+00,-0.004000,
-1.664000e+00,0.008000,
-1.662000e+00,-0.004000,
-1.660000e+00,0.004000,
-1.658000e+00,-0.004000,
-1.656000e+00,0.004000,
-1.654000e+00,-0.004000,
-1.652000e+00,0.004000,
-1.650000e+00,-0.008000,
-1.648000e+00,0.004000,
-1.646000e+00,-0.008000,
-1.644000e+00,0.004000,
-1.642000e+00,-0.004000,
-1.640000e+00,0.004000,
-1.638000e+00,-0.004000,
-1.636000e+00,0.004000,
-1.634000e+00,-0.004000,
-1.632000e+00,0.004000,
-1.630000e+00,-0.004000,
-1.628000e+00,0.004000,
-1.626000e+00,-0.004000,
-1.624000e+00,0.008000,
-1.622000e+00,-0.004000,
-1.620000e+00,0.008000,
-1.618000e+00,-0.004000,
-1.616000e+00,0.004000,
-1.614000e+00,-0.004000,
-1.612000e+00,0.008000,
-1.610000e+00,-0.004000,
-1.608000e+00,-0.004000,
-1.606000e+00,0.008000,
-1.604000e+00,0.008000,
-1.602000e+00,-0.008000,
-1.600000e+00,0.008000,
-1.598000e+00,0.000000,
-1.596000e+00,0.008000,
-1.594000e+00,-0.008000,
-1.592000e+00,0.008000,
-1.590000e+00,0.000000,
-1.588000e+00,0.008000,
-1.586000e+00,0.000000,
-1.584000e+00,0.008000,
-1.582000e+00,0.004000,
-1.580000e+00,0.000000,
-1.578000e+00,0.012000,
-1.576000e+00,0.012000,
-1.574000e+00,0.004000,
-1.572000e+00,0.012000,
-1.570000e+00,0.000000,
-1.568000e+00,0.012000,
-1.566000e+00,0.004000,
-1.564000e+00,0.012000,
-1.562000e+00,0.004000,
-1.560000e+00,0.016000,
-1.558000e+00,0.004000,
-1.556000e+00,0.016000,
-1.554000e+00,0.004000,
-1.552000e+00,0.016000,
-1.550000e+00,0.008000,
-1.548000e+00,0.016000,
-1.546000e+00,0.008000,
-1.544000e+00,0.008000,
-1.542000e+00,0.020000,
-1.540000e+00,0.020000,
-1.538000e+00,0.008000,
-1.536000e+00,0.020000,
-1.534000e+00,0.008000,
-1.532000e+00,0.020000,
-1.530000e+00,0.008000,
-1.528000e+00,0.020000,
-1.526000e+00,0.012000,
-1.524000e+00,0.020000,
-1.522000e+00,0.012000,
-1.520000e+00,0.024000,
-1.518000e+00,0.012000,
-1.516000e+00,0.024000,
-1.514000e+00,0.016000,
-1.512000e+00,0.024000,
-1.510000e+00,0.016000,
-1.508000e+00,0.024000,
-1.506000e+00,0.016000,
-1.504000e+00,0.024000,
-1.502000e+00,0.016000,
-1.500000e+00,0.028000,
-1.498000e+00,0.016000,
-1.496000e+00,0.024000,
-1.494000e+00,0.016000,
-1.492000e+00,0.024000,
-1.490000e+00,0.016000,
-1.488000e+00,0.024000,
-1.486000e+00,0.012000,
-1.484000e+00,0.024000,
-1.482000e+00,0.016000,
-1.480000e+00,0.024000,
-1.478000e+00,0.016000,
-1.476000e+00,0.024000,
-1.474000e+00,0.016000,
-1.472000e+00,0.024000,
-1.470000e+00,0.012000,
-1.468000e+00,0.024000,
-1.466000e+00,0.016000,
-1.464000e+00,0.024000,
-1.462000e+00,0.016000,
-1.460000e+00,0.028000,
-1.458000e+00,0.016000,
-1.456000e+00,0.024000,
-1.454000e+00,0.016000,
-1.452000e+00,0.028000,
-1.450000e+00,0.016000,
-1.448000e+00,0.028000,
-1.446000e+00,0.012000,
-1.444000e+00,0.024000,
-1.442000e+00,0.016000,
-1.440000e+00,0.028000,
-1.438000e+00,0.016000,
-1.436000e+00,0.024000,
-1.434000e+00,0.016000,
-1.432000e+00,0.024000,
-1.430000e+00,0.016000,
-1.428000e+00,0.028000,
-1.426000e+00,0.016000,
-1.424000e+00,0.024000,
-1.422000e+00,0.016000,
-1.420000e+00,0.028000,
-1.418000e+00,0.016000,
-1.416000e+00,0.028000,
-1.414000e+00,0.016000,
-1.412000e+00,0.028000,
-1.410000e+00,0.020000,
-1.408000e+00,0.028000,
-1.406000e+00,0.020000,
-1.404000e+00,0.016000,
-1.402000e+00,0.032000,
-1.400000e+00,0.028000,
-1.398000e+00,0.016000,
-1.396000e+00,0.028000,
-1.394000e+00,0.020000,
-1.392000e+00,0.028000,
-1.390000e+00,0.024000,
-1.388000e+00,0.032000,
-1.386000e+00,0.024000,
-1.384000e+00,0.032000,
-1.382000e+00,0.024000,
-1.380000e+00,0.032000,
-1.378000e+00,0.024000,
-1.376000e+00,0.036000,
-1.374000e+00,0.024000,
-1.372000e+00,0.032000,
-1.370000e+00,0.024000,
-1.368000e+00,0.036000,
-1.366000e+00,0.028000,
-1.364000e+00,0.036000,
-1.362000e+00,0.028000,
-1.360000e+00,0.024000,
-1.358000e+00,0.036000,
-1.356000e+00,0.036000,
-1.354000e+00,0.028000,
-1.352000e+00,0.040000,
-1.350000e+00,0.028000,
-1.348000e+00,0.036000,
-1.346000e+00,0.024000,
-1.344000e+00,0.040000,
-1.342000e+00,0.024000,
-1.340000e+00,0.036000,
-1.338000e+00,0.024000,
-1.336000e+00,0.036000,
-1.334000e+00,0.028000,
-1.332000e+00,0.036000,
-1.330000e+00,0.028000,
-1.328000e+00,0.036000,
-1.326000e+00,0.028000,
-1.324000e+00,0.036000,
-1.322000e+00,0.028000,
-1.320000e+00,0.028000,
-1.318000e+00,0.040000,
-1.316000e+00,0.040000,
-1.314000e+00,0.032000,
-1.312000e+00,0.028000,
-1.310000e+00,0.040000,
-1.308000e+00,0.040000,
-1.306000e+00,0.032000,
-1.304000e+00,0.040000,
-1.302000e+00,0.028000,
-1.300000e+00,0.032000,
-1.298000e+00,0.048000,
-1.296000e+00,0.044000,
-1.294000e+00,0.032000,
-1.292000e+00,0.032000,
-1.290000e+00,0.044000,
-1.288000e+00,0.040000,
-1.286000e+00,0.032000,
-1.284000e+00,0.044000,
-1.282000e+00,0.032000,
-1.280000e+00,0.044000,
-1.278000e+00,0.032000,
-1.276000e+00,0.044000,
-1.274000e+00,0.036000,
-1.272000e+00,0.044000,
-1.270000e+00,0.036000,
-1.268000e+00,0.044000,
-1.266000e+00,0.032000,
-1.264000e+00,0.044000,
-1.262000e+00,0.036000,
-1.260000e+00,0.044000,
-1.258000e+00,0.036000,
-1.256000e+00,0.044000,
-1.254000e+00,0.036000,
-1.252000e+00,0.032000,
-1.250000e+00,0.048000,
-1.248000e+00,0.044000,
-1.246000e+00,0.036000,
-1.244000e+00,0.044000,
-1.242000e+00,0.036000,
-1.240000e+00,0.044000,
-1.238000e+00,0.036000,
-1.236000e+00,0.044000,
-1.234000e+00,0.036000,
-1.232000e+00,0.044000,
-1.230000e+00,0.036000,
-1.228000e+00,0.048000,
-1.226000e+00,0.036000,
-1.224000e+00,0.048000,
-1.222000e+00,0.036000,
-1.220000e+00,0.044000,
-1.218000e+00,0.036000,
-1.216000e+00,0.048000,
-1.214000e+00,0.036000,
-1.212000e+00,0.048000,
-1.210000e+00,0.036000,
-1.208000e+00,0.048000,
-1.206000e+00,0.036000,
-1.204000e+00,0.048000,
-1.202000e+00,0.040000,
-1.200000e+00,0.048000,
-1.198000e+00,0.036000,
-1.196000e+00,0.056000,
-1.194000e+00,0.040000,
-1.192000e+00,0.048000,
-1.190000e+00,0.040000,
-1.188000e+00,0.048000,
-1.186000e+00,0.040000,
-1.184000e+00,0.048000,
-1.182000e+00,0.040000,
-1.180000e+00,0.048000,
-1.178000e+00,0.040000,
-1.176000e+00,0.048000,
-1.174000e+00,0.040000,
-1.172000e+00,0.048000,
-1.170000e+00,0.040000,
-1.168000e+00,0.052000,
-1.166000e+00,0.040000,
-1.164000e+00,0.048000,
-1.162000e+00,0.040000,
-1.160000e+00,0.048000,
-1.158000e+00,0.040000,
-1.156000e+00,0.048000,
-1.154000e+00,0.040000,
-1.152000e+00,0.036000,
-1.150000e+00,0.052000,
-1.148000e+00,0.052000,
-1.146000e+00,0.044000,
-1.144000e+00,0.056000,
-1.142000e+00,0.040000,
-1.140000e+00,0.052000,
-1.138000e+00,0.044000,
-1.136000e+00,0.056000,
-1.134000e+00,0.044000,
-1.132000e+00,0.056000,
-1.130000e+00,0.044000,
-1.128000e+00,0.060000,
-1.126000e+00,0.048000,
-1.124000e+00,0.048000,
-1.122000e+00,0.060000,
-1.120000e+00,0.060000,
-1.118000e+00,0.048000,
-1.116000e+00,0.060000,
-1.114000e+00,0.052000,
-1.112000e+00,0.060000,
-1.110000e+00,0.052000,
-1.108000e+00,0.064000,
-1.106000e+00,0.052000,
-1.104000e+00,0.064000,
-1.102000e+00,0.056000,
-1.100000e+00,0.064000,
-1.098000e+00,0.048000,
-1.096000e+00,0.068000,
-1.094000e+00,0.056000,
-1.092000e+00,0.068000,
-1.090000e+00,0.060000,
-1.088000e+00,0.068000,
-1.086000e+00,0.060000,
-1.084000e+00,0.068000,
-1.082000e+00,0.060000,
-1.080000e+00,0.060000,
-1.078000e+00,0.072000,
-1.076000e+00,0.060000,
-1.074000e+00,0.072000,
-1.072000e+00,0.072000,
-1.070000e+00,0.064000,
-1.068000e+00,0.072000,
-1.066000e+00,0.064000,
-1.064000e+00,0.072000,
-1.062000e+00,0.060000,
-1.060000e+00,0.072000,
-1.058000e+00,0.064000,
-1.056000e+00,0.076000,
-1.054000e+00,0.064000,
-1.052000e+00,0.076000,
-1.050000e+00,0.064000,
-1.048000e+00,0.064000,
-1.046000e+00,0.076000,
-1.044000e+00,0.076000,
-1.042000e+00,0.064000,
-1.040000e+00,0.076000,
-1.038000e+00,0.068000,
-1.036000e+00,0.076000,
-1.034000e+00,0.064000,
-1.032000e+00,0.080000,
-1.030000e+00,0.068000,
-1.028000e+00,0.080000,
-1.026000e+00,0.072000,
-1.024000e+00,0.080000,
-1.022000e+00,0.068000,
-1.020000e+00,0.080000,
-1.018000e+00,0.072000,
-1.016000e+00,0.080000,
-1.014000e+00,0.072000,
-1.012000e+00,0.084000,
-1.010000e+00,0.076000,
-1.008000e+00,0.084000,
-1.006000e+00,0.076000,
-1.004000e+00,0.088000,
-1.002000e+00,0.076000,
-1.000000e+00,0.072000,
-9.980000e-01,0.092000,
-9.960000e-01,0.092000,
-9.940000e-01,0.080000,
-9.920000e-01,0.088000,
-9.900000e-01,0.080000,
-9.880000e-01,0.080000,
-9.860000e-01,0.092000,
-9.840000e-01,0.092000,
-9.820000e-01,0.084000,
-9.800000e-01,0.092000,
-9.780000e-01,0.084000,
-9.760000e-01,0.092000,
-9.740000e-01,0.084000,
-9.720000e-01,0.096000,
-9.700000e-01,0.088000,
-9.680000e-01,0.096000,
-9.660000e-01,0.088000,
-9.640000e-01,0.096000,
-9.620000e-01,0.088000,
-9.600000e-01,0.096000,
-9.580000e-01,0.088000,
-9.560000e-01,0.088000,
-9.540000e-01,0.100000,
-9.520000e-01,0.096000,
-9.500000e-01,0.088000,
-9.480000e-01,0.100000,
-9.460000e-01,0.092000,
-9.440000e-01,0.104000,
-9.420000e-01,0.092000,
-9.400000e-01,0.100000,
-9.380000e-01,0.092000,
-9.360000e-01,0.100000,
-9.340000e-01,0.092000,
-9.320000e-01,0.100000,
-9.300000e-01,0.092000,
-9.280000e-01,0.100000,
-9.260000e-01,0.092000,
-9.240000e-01,0.092000,
-9.220000e-01,0.104000,
-9.200000e-01,0.104000,
-9.180000e-01,0.096000,
-9.160000e-01,0.104000,
-9.140000e-01,0.096000,
-9.120000e-01,0.104000,
-9.100000e-01,0.096000,
-9.080000e-01,0.104000,
-9.060000e-01,0.096000,
-9.040000e-01,0.108000,
-9.020000e-01,0.096000,
-9.000000e-01,0.108000,
-8.980000e-01,0.092000,
-8.960000e-01,0.104000,
-8.940000e-01,0.096000,
-8.920000e-01,0.104000,
-8.900000e-01,0.096000,
-8.880000e-01,0.104000,
-8.860000e-01,0.096000,
-8.840000e-01,0.104000,
-8.820000e-01,0.096000,
-8.800000e-01,0.108000,
-8.780000e-01,0.096000,
-8.760000e-01,0.104000,
-8.740000e-01,0.092000,
-8.720000e-01,0.104000,
-8.700000e-01,0.096000,
-8.680000e-01,0.104000,
-8.660000e-01,0.092000,
-8.640000e-01,0.092000,
-8.620000e-01,0.104000,
-8.600000e-01,0.104000,
-8.580000e-01,0.092000,
-8.560000e-01,0.104000,
-8.540000e-01,0.092000,
-8.520000e-01,0.092000,
-8.500000e-01,0.108000,
-8.480000e-01,0.104000,
-8.460000e-01,0.092000,
-8.440000e-01,0.104000,
-8.420000e-01,0.092000,
-8.400000e-01,0.104000,
-8.380000e-01,0.096000,
-8.360000e-01,0.104000,
-8.340000e-01,0.092000,
-8.320000e-01,0.104000,
-8.300000e-01,0.092000,
-8.280000e-01,0.104000,
-8.260000e-01,0.092000,
-8.240000e-01,0.104000,
-8.220000e-01,0.096000,
-8.200000e-01,0.104000,
-8.180000e-01,0.092000,
-8.160000e-01,0.104000,
-8.140000e-01,0.096000,
-8.120000e-01,0.104000,
-8.100000e-01,0.092000,
-8.080000e-01,0.100000,
-8.060000e-01,0.092000,
-8.040000e-01,0.100000,
-8.020000e-01,0.092000,
-8.000000e-01,0.100000,
-7.980000e-01,0.092000,
-7.960000e-01,0.100000,
-7.940000e-01,0.092000,
-7.920000e-01,0.100000,
-7.900000e-01,0.088000,
-7.880000e-01,0.096000,
-7.860000e-01,0.088000,
-7.840000e-01,0.096000,
-7.820000e-01,0.088000,
-7.800000e-01,0.092000,
-7.780000e-01,0.084000,
-7.760000e-01,0.092000,
-7.740000e-01,0.080000,
-7.720000e-01,0.092000,
-7.700000e-01,0.080000,
-7.680000e-01,0.088000,
-7.660000e-01,0.080000,
-7.640000e-01,0.092000,
-7.620000e-01,0.080000,
-7.600000e-01,0.088000,
-7.580000e-01,0.076000,
-7.560000e-01,0.088000,
-7.540000e-01,0.076000,
-7.520000e-01,0.084000,
-7.500000e-01,0.072000,
-7.480000e-01,0.088000,
-7.460000e-01,0.072000,
-7.440000e-01,0.072000,
-7.420000e-01,0.084000,
-7.400000e-01,0.080000,
-7.380000e-01,0.072000,
-7.360000e-01,0.080000,
-7.340000e-01,0.072000,
-7.320000e-01,0.076000,
-7.300000e-01,0.068000,
-7.280000e-01,0.080000,
-7.260000e-01,0.068000,
-7.240000e-01,0.076000,
-7.220000e-01,0.068000,
-7.200000e-01,0.076000,
-7.180000e-01,0.064000,
-7.160000e-01,0.076000,
-7.140000e-01,0.064000,
-7.120000e-01,0.072000,
-7.100000e-01,0.064000,
-7.080000e-01,0.072000,
-7.060000e-01,0.064000,
-7.040000e-01,0.072000,
-7.020000e-01,0.064000,
-7.000000e-01,0.060000,
-6.980000e-01,0.072000,
-6.960000e-01,0.068000,
-6.940000e-01,0.056000,
-6.920000e-01,0.068000,
-6.900000e-01,0.056000,
-6.880000e-01,0.064000,
-6.860000e-01,0.056000,
-6.840000e-01,0.064000,
-6.820000e-01,0.052000,
-6.800000e-01,0.060000,
-6.780000e-01,0.052000,
-6.760000e-01,0.060000,
-6.740000e-01,0.048000,
-6.720000e-01,0.056000,
-6.700000e-01,0.048000,
-6.680000e-01,0.056000,
-6.660000e-01,0.044000,
-6.640000e-01,0.056000,
-6.620000e-01,0.044000,
-6.600000e-01,0.052000,
-6.580000e-01,0.044000,
-6.560000e-01,0.048000,
-6.540000e-01,0.040000,
-6.520000e-01,0.048000,
-6.500000e-01,0.040000,
-6.480000e-01,0.048000,
-6.460000e-01,0.036000,
-6.440000e-01,0.044000,
-6.420000e-01,0.032000,
-6.400000e-01,0.044000,
-6.380000e-01,0.032000,
-6.360000e-01,0.040000,
-6.340000e-01,0.032000,
-6.320000e-01,0.040000,
-6.300000e-01,0.032000,
-6.280000e-01,0.040000,
-6.260000e-01,0.028000,
-6.240000e-01,0.040000,
-6.220000e-01,0.028000,
-6.200000e-01,0.036000,
-6.180000e-01,0.024000,
-6.160000e-01,0.036000,
-6.140000e-01,0.024000,
-6.120000e-01,0.032000,
-6.100000e-01,0.024000,
-6.080000e-01,0.028000,
-6.060000e-01,0.020000,
-6.040000e-01,0.028000,
-6.020000e-01,0.020000,
-6.000000e-01,0.016000,
-5.980000e-01,0.032000,
-5.960000e-01,0.028000,
-5.940000e-01,0.016000,
-5.920000e-01,0.024000,
-5.900000e-01,0.012000,
-5.880000e-01,0.024000,
-5.860000e-01,0.016000,
-5.840000e-01,0.020000,
-5.820000e-01,0.012000,
-5.800000e-01,0.020000,
-5.780000e-01,0.008000,
-5.760000e-01,0.020000,
-5.740000e-01,0.008000,
-5.720000e-01,0.016000,
-5.700000e-01,0.008000,
-5.680000e-01,0.016000,
-5.660000e-01,0.008000,
-5.640000e-01,0.012000,
-5.620000e-01,0.004000,
-5.600000e-01,0.012000,
-5.580000e-01,0.004000,
-5.560000e-01,0.012000,
-5.540000e-01,0.004000,
-5.520000e-01,0.012000,
-5.500000e-01,0.000000,
-5.480000e-01,0.008000,
-5.460000e-01,0.000000,
-5.440000e-01,0.008000,
-5.420000e-01,-0.008000,
-5.400000e-01,0.008000,
-5.380000e-01,-0.004000,
-5.360000e-01,0.004000,
-5.340000e-01,-0.004000,
-5.320000e-01,0.004000,
-5.300000e-01,-0.004000,
-5.280000e-01,0.004000,
-5.260000e-01,-0.004000,
-5.240000e-01,0.004000,
-5.220000e-01,-0.008000,
-5.200000e-01,0.004000,
-5.180000e-01,-0.008000,
-5.160000e-01,0.004000,
-5.140000e-01,-0.008000,
-5.120000e-01,0.000000,
-5.100000e-01,-0.008000,
-5.080000e-01,0.000000,
-5.060000e-01,-0.008000,
-5.040000e-01,0.000000,
-5.020000e-01,-0.008000,
-5.000000e-01,-0.004000,
-4.980000e-01,-0.012000,
-4.960000e-01,-0.004000,
-4.940000e-01,-0.012000,
-4.920000e-01,-0.004000,
-4.900000e-01,-0.012000,
-4.880000e-01,-0.004000,
-4.860000e-01,-0.012000,
-4.840000e-01,-0.004000,
-4.820000e-01,-0.016000,
-4.800000e-01,-0.004000,
-4.780000e-01,-0.012000,
-4.760000e-01,-0.016000,
-4.740000e-01,-0.004000,
-4.720000e-01,-0.004000,
-4.700000e-01,-0.016000,
-4.680000e-01,-0.004000,
-4.660000e-01,-0.016000,
-4.640000e-01,-0.008000,
-4.620000e-01,-0.016000,
-4.600000e-01,-0.008000,
-4.580000e-01,-0.016000,
-4.560000e-01,-0.008000,
-4.540000e-01,-0.016000,
-4.520000e-01,-0.008000,
-4.500000e-01,-0.020000,
-4.480000e-01,-0.020000,
-4.460000e-01,-0.008000,
-4.440000e-01,-0.008000,
-4.420000e-01,-0.016000,
-4.400000e-01,-0.008000,
-4.380000e-01,-0.020000,
-4.360000e-01,-0.008000,
-4.340000e-01,-0.020000,
-4.320000e-01,-0.012000,
-4.300000e-01,-0.020000,
-4.280000e-01,-0.008000,
-4.260000e-01,-0.020000,
-4.240000e-01,-0.012000,
-4.220000e-01,-0.020000,
-4.200000e-01,-0.012000,
-4.180000e-01,-0.024000,
-4.160000e-01,-0.012000,
-4.140000e-01,-0.020000,
-4.120000e-01,-0.012000,
-4.100000e-01,-0.024000,
-4.080000e-01,-0.012000,
-4.060000e-01,-0.020000,
-4.040000e-01,-0.012000,
-4.020000e-01,-0.020000,
-4.000000e-01,-0.012000,
-3.980000e-01,-0.020000,
-3.960000e-01,-0.012000,
-3.940000e-01,-0.020000,
-3.920000e-01,-0.016000,
-3.900000e-01,-0.020000,
-3.880000e-01,-0.012000,
-3.860000e-01,-0.020000,
-3.840000e-01,-0.012000,
-3.820000e-01,-0.020000,
-3.800000e-01,-0.012000,
-3.780000e-01,-0.020000,
-3.760000e-01,-0.024000,
-3.740000e-01,-0.012000,
-3.720000e-01,-0.012000,
-3.700000e-01,-0.024000,
-3.680000e-01,-0.012000,
-3.660000e-01,-0.024000,
-3.640000e-01,-0.012000,
-3.620000e-01,-0.024000,
-3.600000e-01,-0.016000,
-3.580000e-01,-0.024000,
-3.560000e-01,-0.016000,
-3.540000e-01,-0.024000,
-3.520000e-01,-0.016000,
-3.500000e-01,-0.028000,
-3.480000e-01,-0.016000,
-3.460000e-01,-0.028000,
-3.440000e-01,-0.016000,
-3.420000e-01,-0.028000,
-3.400000e-01,-0.020000,
-3.380000e-01,-0.028000,
-3.360000e-01,-0.020000,
-3.340000e-01,-0.028000,
-3.320000e-01,-0.016000,
-3.300000e-01,-0.028000,
-3.280000e-01,-0.020000,
-3.260000e-01,-0.028000,
-3.240000e-01,-0.020000,
-3.220000e-01,-0.032000,
-3.200000e-01,-0.020000,
-3.180000e-01,-0.028000,
-3.160000e-01,-0.020000,
-3.140000e-01,-0.032000,
-3.120000e-01,-0.020000,
-3.100000e-01,-0.028000,
-3.080000e-01,-0.020000,
-3.060000e-01,-0.028000,
-3.040000e-01,-0.024000,
-3.020000e-01,-0.036000,
-3.000000e-01,-0.020000,
-2.980000e-01,-0.032000,
-2.960000e-01,-0.020000,
-2.940000e-01,-0.032000,
-2.920000e-01,-0.024000,
-2.900000e-01,-0.036000,
-2.880000e-01,-0.028000,
-2.860000e-01,-0.032000,
-2.840000e-01,-0.028000,
-2.820000e-01,-0.036000,
-2.800000e-01,-0.028000,
-2.780000e-01,-0.036000,
-2.760000e-01,-0.028000,
-2.740000e-01,-0.040000,
-2.720000e-01,-0.040000,
-2.700000e-01,-0.028000,
-2.680000e-01,-0.032000,
-2.660000e-01,-0.040000,
-2.640000e-01,-0.028000,
-2.620000e-01,-0.040000,
-2.600000e-01,-0.032000,
-2.580000e-01,-0.040000,
-2.560000e-01,-0.032000,
-2.540000e-01,-0.040000,
-2.520000e-01,-0.032000,
-2.500000e-01,-0.048000,
-2.480000e-01,-0.032000,
-2.460000e-01,-0.044000,
-2.440000e-01,-0.032000,
-2.420000e-01,-0.044000,
-2.400000e-01,-0.032000,
-2.380000e-01,-0.044000,
-2.360000e-01,-0.032000,
-2.340000e-01,-0.040000,
-2.320000e-01,-0.032000,
-2.300000e-01,-0.040000,
-2.280000e-01,-0.032000,
-2.260000e-01,-0.040000,
-2.240000e-01,-0.032000,
-2.220000e-01,-0.044000,
-2.200000e-01,-0.032000,
-2.180000e-01,-0.040000,
-2.160000e-01,-0.040000,
-2.140000e-01,-0.028000,
-2.120000e-01,-0.032000,
-2.100000e-01,-0.040000,
-2.080000e-01,-0.028000,
-2.060000e-01,-0.040000,
-2.040000e-01,-0.028000,
-2.020000e-01,-0.040000,
-2.000000e-01,-0.028000,
-1.980000e-01,-0.040000,
-1.960000e-01,-0.028000,
-1.940000e-01,-0.040000,
-1.920000e-01,-0.028000,
-1.900000e-01,-0.036000,
-1.880000e-01,-0.028000,
-1.860000e-01,-0.036000,
-1.840000e-01,-0.024000,
-1.820000e-01,-0.036000,
-1.800000e-01,-0.024000,
-1.780000e-01,-0.036000,
-1.760000e-01,-0.028000,
-1.740000e-01,-0.036000,
-1.720000e-01,-0.028000,
-1.700000e-01,-0.036000,
-1.680000e-01,-0.024000,
-1.660000e-01,-0.036000,
-1.640000e-01,-0.028000,
-1.620000e-01,-0.036000,
-1.600000e-01,-0.028000,
-1.580000e-01,-0.036000,
-1.560000e-01,-0.028000,
-1.540000e-01,-0.040000,
-1.520000e-01,-0.024000,
-1.500000e-01,-0.036000,
-1.480000e-01,-0.024000,
-1.460000e-01,-0.040000,
-1.440000e-01,-0.028000,
-1.420000e-01,-0.036000,
-1.400000e-01,-0.028000,
-1.380000e-01,-0.036000,
-1.360000e-01,-0.028000,
-1.340000e-01,-0.036000,
-1.320000e-01,-0.028000,
-1.300000e-01,-0.036000,
-1.280000e-01,-0.028000,
-1.260000e-01,-0.036000,
-1.240000e-01,-0.028000,
-1.220000e-01,-0.036000,
-1.200000e-01,-0.028000,
-1.180000e-01,-0.036000,
-1.160000e-01,-0.028000,
-1.140000e-01,-0.036000,
-1.120000e-01,-0.028000,
-1.100000e-01,-0.036000,
-1.080000e-01,-0.028000,
-1.060000e-01,-0.036000,
-1.040000e-01,-0.028000,
-1.020000e-01,-0.040000,
-1.000000e-01,-0.024000,
-9.800000e-02,-0.040000,
-9.600000e-02,-0.024000,
-9.400000e-02,-0.040000,
-9.200000e-02,-0.028000,
-9.000000e-02,-0.036000,
-8.800000e-02,-0.024000,
-8.600000e-02,-0.036000,
-8.400000e-02,-0.024000,
-8.200000e-02,-0.036000,
-8.000000e-02,-0.028000,
-7.800000e-02,-0.036000,
-7.600000e-02,-0.020000,
-7.400000e-02,-0.036000,
-7.200000e-02,-0.028000,
-7.000000e-02,-0.036000,
-6.800000e-02,-0.024000,
-6.600000e-02,-0.036000,
-6.400000e-02,-0.028000,
-6.200000e-02,-0.036000,
-6.000000e-02,-0.028000,
-5.800000e-02,-0.036000,
-5.600000e-02,-0.028000,
-5.400000e-02,-0.036000,
-5.200000e-02,-0.028000,
-5.000000e-02,-0.036000,
-4.800000e-02,-0.020000,
-4.600000e-02,-0.036000,
-4.400000e-02,-0.028000,
-4.200000e-02,-0.036000,
-4.000000e-02,-0.028000,
-3.800000e-02,-0.036000,
-3.600000e-02,-0.028000,
-3.400000e-02,-0.036000,
-3.200000e-02,-0.028000,
-3.000000e-02,-0.036000,
-2.800000e-02,-0.024000,
-2.600000e-02,-0.032000,
-2.400000e-02,-0.024000,
-2.200000e-02,-0.036000,
-2.000000e-02,-0.024000,
-1.800000e-02,-0.032000,
-1.600000e-02,-0.024000,
-1.400000e-02,-0.036000,
-1.200000e-02,-0.024000,
-1.000000e-02,-0.032000,
-8.000000e-03,-0.024000,
-6.000000e-03,-0.036000,
-4.000000e-03,-0.028000,
-2.000000e-03,-0.032000,
0.000000e+00,-0.024000,
2.000000e-03,-0.040000,
4.000000e-03,-0.024000,
6.000000e-03,-0.036000,
8.000000e-03,-0.024000,
1.000000e-02,-0.036000,
1.200000e-02,-0.028000,
1.400000e-02,-0.036000,
1.600000e-02,-0.028000,
1.800000e-02,-0.036000,
2.000000e-02,-0.028000,
2.200000e-02,-0.036000,
2.400000e-02,-0.024000,
2.600000e-02,-0.036000,
2.800000e-02,-0.028000,
3.000000e-02,-0.036000,
3.200000e-02,-0.028000,
3.400000e-02,-0.036000,
3.600000e-02,-0.028000,
3.800000e-02,-0.036000,
4.000000e-02,-0.028000,
4.200000e-02,-0.040000,
4.400000e-02,-0.028000,
4.600000e-02,-0.040000,
4.800000e-02,-0.028000,
5.000000e-02,-0.040000,
5.200000e-02,-0.028000,
5.400000e-02,-0.040000,
5.600000e-02,-0.024000,
5.800000e-02,-0.040000,
6.000000e-02,-0.028000,
6.200000e-02,-0.040000,
6.400000e-02,-0.028000,
6.600000e-02,-0.040000,
6.800000e-02,-0.028000,
7.000000e-02,-0.040000,
7.200000e-02,-0.028000,
7.400000e-02,-0.036000,
7.600000e-02,-0.028000,
7.800000e-02,-0.036000,
8.000000e-02,-0.028000,
8.200000e-02,-0.036000,
8.400000e-02,-0.028000,
8.600000e-02,-0.036000,
8.800000e-02,-0.028000,
9.000000e-02,-0.036000,
9.200000e-02,-0.028000,
9.400000e-02,-0.036000,
9.600000e-02,-0.028000,
9.800000e-02,-0.036000,
1.000000e-01,-0.028000,
1.020000e-01,-0.036000,
1.040000e-01,-0.024000,
1.060000e-01,-0.036000,
1.080000e-01,-0.028000,
1.100000e-01,-0.036000,
1.120000e-01,-0.028000,
1.140000e-01,-0.036000,
1.160000e-01,-0.024000,
1.180000e-01,-0.036000,
1.200000e-01,-0.024000,
1.220000e-01,-0.032000,
1.240000e-01,-0.036000,
1.260000e-01,-0.024000,
1.280000e-01,-0.024000,
1.300000e-01,-0.032000,
1.320000e-01,-0.024000,
1.340000e-01,-0.032000,
1.360000e-01,-0.024000,
1.380000e-01,-0.032000,
1.400000e-01,-0.024000,
1.420000e-01,-0.032000,
1.440000e-01,-0.020000,
1.460000e-01,-0.032000,
1.480000e-01,-0.020000,
1.500000e-01,-0.028000,
1.520000e-01,-0.020000,
1.540000e-01,-0.036000,
1.560000e-01,-0.020000,
1.580000e-01,-0.036000,
1.600000e-01,-0.020000,
1.620000e-01,-0.028000,
1.640000e-01,-0.020000,
1.660000e-01,-0.028000,
1.680000e-01,-0.020000,
1.700000e-01,-0.028000,
1.720000e-01,-0.016000,
1.740000e-01,-0.028000,
1.760000e-01,-0.020000,
1.780000e-01,-0.028000,
1.800000e-01,-0.016000,
1.820000e-01,-0.028000,
1.840000e-01,-0.016000,
1.860000e-01,-0.028000,
1.880000e-01,-0.020000,
1.900000e-01,-0.028000,
1.920000e-01,-0.020000,
1.940000e-01,-0.028000,
1.960000e-01,-0.020000,
1.980000e-01,-0.028000,
2.000000e-01,-0.020000,
2.020000e-01,-0.028000,
2.040000e-01,-0.020000,
2.060000e-01,-0.028000,
2.080000e-01,-0.020000,
2.100000e-01,-0.028000,
2.120000e-01,-0.020000,
2.140000e-01,-0.028000,
2.160000e-01,-0.020000,
2.180000e-01,-0.028000,
2.200000e-01,-0.024000,
2.220000e-01,-0.028000,
2.240000e-01,-0.020000,
2.260000e-01,-0.032000,
2.280000e-01,-0.024000,
2.300000e-01,-0.032000,
2.320000e-01,-0.024000,
2.340000e-01,-0.032000,
2.360000e-01,-0.024000,
2.380000e-01,-0.032000,
2.400000e-01,-0.024000,
2.420000e-01,-0.036000,
2.440000e-01,-0.024000,
2.460000e-01,-0.032000,
2.480000e-01,-0.024000,
2.500000e-01,-0.036000,
2.520000e-01,-0.024000,
2.540000e-01,-0.036000,
2.560000e-01,-0.024000,
2.580000e-01,-0.036000,
2.600000e-01,-0.024000,
2.620000e-01,-0.036000,
2.640000e-01,-0.024000,
2.660000e-01,-0.036000,
2.680000e-01,-0.028000,
2.700000e-01,-0.036000,
2.720000e-01,-0.028000,
2.740000e-01,-0.036000,
2.760000e-01,-0.028000,
2.780000e-01,-0.036000,
2.800000e-01,-0.028000,
2.820000e-01,-0.036000,
2.840000e-01,-0.028000,
2.860000e-01,-0.040000,
2.880000e-01,-0.028000,
2.900000e-01,-0.036000,
2.920000e-01,-0.028000,
2.940000e-01,-0.040000,
2.960000e-01,-0.028000,
2.980000e-01,-0.040000,
3.000000e-01,-0.024000,
3.020000e-01,-0.036000,
3.040000e-01,-0.028000,
3.060000e-01,-0.036000,
3.080000e-01,-0.024000,
3.100000e-01,-0.036000,
3.120000e-01,-0.024000,
3.140000e-01,-0.040000,
3.160000e-01,-0.028000,
3.180000e-01,-0.036000,
3.200000e-01,-0.028000,
3.220000e-01,-0.036000,
3.240000e-01,-0.028000,
3.260000e-01,-0.036000,
3.280000e-01,-0.028000,
3.300000e-01,-0.032000,
3.320000e-01,-0.028000,
3.340000e-01,-0.036000,
3.360000e-01,-0.024000,
3.380000e-01,-0.032000,
3.400000e-01,-0.024000,
3.420000e-01,-0.032000,
3.440000e-01,-0.024000,
3.460000e-01,-0.032000,
3.480000e-01,-0.024000,
3.500000e-01,-0.032000,
3.520000e-01,-0.024000,
3.540000e-01,-0.036000,
3.560000e-01,-0.024000,
3.580000e-01,-0.032000,
3.600000e-01,-0.024000,
3.620000e-01,-0.032000,
3.640000e-01,-0.024000,
3.660000e-01,-0.032000,
3.680000e-01,-0.024000,
3.700000e-01,-0.032000,
3.720000e-01,-0.024000,
3.740000e-01,-0.032000,
3.760000e-01,-0.024000,
3.780000e-01,-0.032000,
3.800000e-01,-0.024000,
3.820000e-01,-0.032000,
3.840000e-01,-0.024000,
3.860000e-01,-0.036000,
3.880000e-01,-0.024000,
3.900000e-01,-0.032000,
3.920000e-01,-0.024000,
3.940000e-01,-0.032000,
3.960000e-01,-0.024000,
3.980000e-01,-0.032000,
4.000000e-01,-0.024000,
4.020000e-01,-0.032000,
4.040000e-01,-0.024000,
4.060000e-01,-0.036000,
4.080000e-01,-0.024000,
4.100000e-01,-0.032000,
4.120000e-01,-0.024000,
4.140000e-01,-0.032000,
4.160000e-01,-0.024000,
4.180000e-01,-0.032000,
4.200000e-01,-0.024000,
4.220000e-01,-0.032000,
4.240000e-01,-0.024000,
4.260000e-01,-0.032000,
4.280000e-01,-0.024000,
4.300000e-01,-0.032000,
4.320000e-01,-0.024000,
4.340000e-01,-0.032000,
4.360000e-01,-0.024000,
4.380000e-01,-0.032000,
4.400000e-01,-0.028000,
4.420000e-01,-0.032000,
4.440000e-01,-0.024000,
4.460000e-01,-0.036000,
4.480000e-01,-0.024000,
4.500000e-01,-0.036000,
4.520000e-01,-0.024000,
4.540000e-01,-0.040000,
4.560000e-01,-0.024000,
4.580000e-01,-0.036000,
4.600000e-01,-0.028000,
4.620000e-01,-0.036000,
4.640000e-01,-0.024000,
4.660000e-01,-0.032000,
4.680000e-01,-0.024000,
4.700000e-01,-0.032000,
4.720000e-01,-0.024000,
4.740000e-01,-0.032000,
4.760000e-01,-0.036000,
4.780000e-01,-0.024000,
4.800000e-01,-0.024000,
4.820000e-01,-0.036000,
4.840000e-01,-0.032000,
4.860000e-01,-0.020000,
4.880000e-01,-0.024000,
4.900000e-01,-0.032000,
4.920000e-01,-0.020000,
4.940000e-01,-0.032000,
4.960000e-01,-0.024000,
4.980000e-01,-0.032000,
5.000000e-01,-0.036000,
5.020000e-01,-0.020000,
5.040000e-01,-0.024000,
5.060000e-01,-0.032000,
5.080000e-01,-0.020000,
5.100000e-01,-0.032000,
5.120000e-01,-0.024000,
5.140000e-01,-0.032000,
5.160000e-01,-0.024000,
5.180000e-01,-0.032000,
5.200000e-01,-0.024000,
5.220000e-01,-0.032000,
5.240000e-01,-0.024000,
5.260000e-01,-0.032000,
5.280000e-01,-0.024000,
5.300000e-01,-0.036000,
5.320000e-01,-0.028000,
5.340000e-01,-0.036000,
5.360000e-01,-0.024000,
5.380000e-01,-0.036000,
5.400000e-01,-0.024000,
5.420000e-01,-0.036000,
5.440000e-01,-0.028000,
5.460000e-01,-0.036000,
5.480000e-01,-0.028000,
5.500000e-01,-0.040000,
5.520000e-01,-0.028000,
5.540000e-01,-0.040000,
5.560000e-01,-0.024000,
5.580000e-01,-0.036000,
5.600000e-01,-0.040000,
5.620000e-01,-0.028000,
5.640000e-01,-0.028000,
5.660000e-01,-0.036000,
5.680000e-01,-0.040000,
5.700000e-01,-0.028000,
5.720000e-01,-0.028000,
5.740000e-01,-0.040000,
5.760000e-01,-0.028000,
5.780000e-01,-0.036000,
5.800000e-01,-0.028000,
5.820000e-01,-0.036000,
5.840000e-01,-0.028000,
5.860000e-01,-0.036000,
5.880000e-01,-0.028000,
5.900000e-01,-0.036000,
5.920000e-01,-0.024000,
5.940000e-01,-0.036000,
5.960000e-01,-0.036000,
5.980000e-01,-0.024000,
6.000000e-01,-0.024000,
6.020000e-01,-0.036000,
6.040000e-01,-0.024000,
6.060000e-01,-0.032000,
6.080000e-01,-0.024000,
6.100000e-01,-0.032000,
6.120000e-01,-0.024000,
6.140000e-01,-0.032000,
6.160000e-01,-0.020000,
6.180000e-01,-0.032000,
6.200000e-01,-0.024000,
6.220000e-01,-0.032000,
6.240000e-01,-0.020000,
6.260000e-01,-0.032000,
6.280000e-01,-0.032000,
6.300000e-01,-0.020000,
6.320000e-01,-0.024000,
6.340000e-01,-0.032000,
6.360000e-01,-0.024000,
6.380000e-01,-0.032000,
6.400000e-01,-0.020000,
6.420000e-01,-0.032000,
6.440000e-01,-0.020000,
6.460000e-01,-0.032000,
6.480000e-01,-0.024000,
6.500000e-01,-0.032000,
6.520000e-01,-0.024000,
6.540000e-01,-0.032000,
6.560000e-01,-0.020000,
6.580000e-01,-0.032000,
6.600000e-01,-0.024000,
6.620000e-01,-0.032000,
6.640000e-01,-0.024000,
6.660000e-01,-0.032000,
6.680000e-01,-0.020000,
6.700000e-01,-0.032000,
6.720000e-01,-0.024000,
6.740000e-01,-0.032000,
6.760000e-01,-0.024000,
6.780000e-01,-0.032000,
6.800000e-01,-0.024000,
6.820000e-01,-0.032000,
6.840000e-01,-0.020000,
6.860000e-01,-0.032000,
6.880000e-01,-0.024000,
6.900000e-01,-0.032000,
6.920000e-01,-0.024000,
6.940000e-01,-0.036000,
6.960000e-01,-0.024000,
6.980000e-01,-0.032000,
7.000000e-01,-0.024000,
7.020000e-01,-0.032000,
7.040000e-01,-0.024000,
7.060000e-01,-0.032000,
7.080000e-01,-0.036000,
7.100000e-01,-0.024000,
7.120000e-01,-0.024000,
7.140000e-01,-0.032000,
7.160000e-01,-0.024000,
7.180000e-01,-0.032000,
7.200000e-01,-0.028000,
7.220000e-01,-0.036000,
7.240000e-01,-0.028000,
7.260000e-01,-0.036000,
7.280000e-01,-0.028000,
7.300000e-01,-0.036000,
7.320000e-01,-0.028000,
7.340000e-01,-0.036000,
7.360000e-01,-0.024000,
7.380000e-01,-0.036000,
7.400000e-01,-0.028000,
7.420000e-01,-0.036000,
7.440000e-01,-0.028000,
7.460000e-01,-0.036000,
7.480000e-01,-0.028000,
7.500000e-01,-0.040000,
7.520000e-01,-0.040000,
7.540000e-01,-0.024000,
7.560000e-01,-0.028000,
7.580000e-01,-0.040000,
7.600000e-01,-0.028000,
7.620000e-01,-0.036000,
7.640000e-01,-0.028000,
7.660000e-01,-0.036000,
7.680000e-01,-0.028000,
7.700000e-01,-0.036000,
7.720000e-01,-0.028000,
7.740000e-01,-0.036000,
7.760000e-01,-0.028000,
7.780000e-01,-0.036000,
7.800000e-01,-0.028000,
7.820000e-01,-0.036000,
7.840000e-01,-0.024000,
7.860000e-01,-0.036000,
7.880000e-01,-0.028000,
7.900000e-01,-0.036000,
7.920000e-01,-0.028000,
7.940000e-01,-0.036000,
7.960000e-01,-0.028000,
7.980000e-01,-0.036000,
8.000000e-01,-0.024000,
8.020000e-01,-0.036000,
8.040000e-01,-0.028000,
8.060000e-01,-0.036000,
8.080000e-01,-0.024000,
8.100000e-01,-0.036000,
8.120000e-01,-0.024000,
8.140000e-01,-0.036000,
8.160000e-01,-0.028000,
8.180000e-01,-0.036000,
8.200000e-01,-0.028000,
8.220000e-01,-0.036000,
8.240000e-01,-0.028000,
8.260000e-01,-0.036000,
8.280000e-01,-0.028000,
8.300000e-01,-0.036000,
8.320000e-01,-0.028000,
8.340000e-01,-0.036000,
8.360000e-01,-0.028000,
8.380000e-01,-0.036000,
8.400000e-01,-0.028000,
8.420000e-01,-0.036000,
8.440000e-01,-0.028000,
8.460000e-01,-0.040000,
8.480000e-01,-0.028000,
8.500000e-01,-0.040000,
8.520000e-01,-0.028000,
8.540000e-01,-0.040000,
8.560000e-01,-0.028000,
8.580000e-01,-0.040000,
8.600000e-01,-0.032000,
8.620000e-01,-0.040000,
8.640000e-01,-0.036000,
8.660000e-01,-0.044000,
8.680000e-01,-0.032000,
8.700000e-01,-0.044000,
8.720000e-01,-0.032000,
8.740000e-01,-0.044000,
8.760000e-01,-0.036000,
8.780000e-01,-0.040000,
8.800000e-01,-0.032000,
8.820000e-01,-0.044000,
8.840000e-01,-0.032000,
8.860000e-01,-0.040000,
8.880000e-01,-0.032000,
8.900000e-01,-0.044000,
8.920000e-01,-0.032000,
8.940000e-01,-0.040000,
8.960000e-01,-0.032000,
8.980000e-01,-0.040000,
9.000000e-01,-0.032000,
9.020000e-01,-0.044000,
9.040000e-01,-0.028000,
9.060000e-01,-0.040000,
9.080000e-01,-0.032000,
9.100000e-01,-0.040000,
9.120000e-01,-0.032000,
9.140000e-01,-0.040000,
9.160000e-01,-0.028000,
9.180000e-01,-0.040000,
9.200000e-01,-0.028000,
9.220000e-01,-0.036000,
9.240000e-01,-0.028000,
9.260000e-01,-0.040000,
9.280000e-01,-0.028000,
9.300000e-01,-0.036000,
9.320000e-01,-0.028000,
9.340000e-01,-0.036000,
9.360000e-01,-0.028000,
9.380000e-01,-0.040000,
9.400000e-01,-0.028000,
9.420000e-01,-0.036000,
9.440000e-01,-0.028000,
9.460000e-01,-0.036000,
9.480000e-01,-0.024000,
9.500000e-01,-0.036000,
9.520000e-01,-0.024000,
9.540000e-01,-0.036000,
9.560000e-01,-0.024000,
9.580000e-01,-0.032000,
9.600000e-01,-0.024000,
9.620000e-01,-0.032000,
9.640000e-01,-0.020000,
9.660000e-01,-0.028000,
9.680000e-01,-0.020000,
9.700000e-01,-0.028000,
9.720000e-01,-0.020000,
9.740000e-01,-0.028000,
9.760000e-01,-0.020000,
9.780000e-01,-0.028000,
9.800000e-01,-0.020000,
9.820000e-01,-0.028000,
9.840000e-01,-0.016000,
9.860000e-01,-0.028000,
9.880000e-01,-0.020000,
9.900000e-01,-0.028000,
9.920000e-01,-0.020000,
9.940000e-01,-0.028000,
9.960000e-01,-0.020000,
9.980000e-01,-0.028000,
1.000000e+00,-0.016000,
1.002000e+00,-0.028000,
1.004000e+00,-0.016000,
1.006000e+00,-0.028000,
1.008000e+00,-0.020000,
1.010000e+00,-0.032000,
1.012000e+00,-0.024000,
1.014000e+00,-0.032000,
1.016000e+00,-0.024000,
1.018000e+00,-0.036000,
1.020000e+00,-0.024000,
1.022000e+00,-0.032000,
1.024000e+00,-0.024000,
1.026000e+00,-0.032000,
1.028000e+00,-0.024000,
1.030000e+00,-0.036000,
1.032000e+00,-0.024000,
1.034000e+00,-0.036000,
1.036000e+00,-0.028000,
1.038000e+00,-0.036000,
1.040000e+00,-0.028000,
1.042000e+00,-0.036000,
1.044000e+00,-0.028000,
1.046000e+00,-0.036000,
1.048000e+00,-0.028000,
1.050000e+00,-0.040000,
1.052000e+00,-0.028000,
1.054000e+00,-0.040000,
1.056000e+00,-0.040000,
1.058000e+00,-0.028000,
1.060000e+00,-0.028000,
1.062000e+00,-0.036000,
1.064000e+00,-0.028000,
1.066000e+00,-0.040000,
1.068000e+00,-0.040000,
1.070000e+00,-0.028000,
1.072000e+00,-0.028000,
1.074000e+00,-0.036000,
1.076000e+00,-0.028000,
1.078000e+00,-0.036000,
1.080000e+00,-0.028000,
1.082000e+00,-0.036000,
1.084000e+00,-0.028000,
1.086000e+00,-0.036000,
1.088000e+00,-0.028000,
1.090000e+00,-0.036000,
1.092000e+00,-0.028000,
1.094000e+00,-0.036000,
1.096000e+00,-0.028000,
1.098000e+00,-0.036000,
1.100000e+00,-0.028000,
1.102000e+00,-0.040000,
1.104000e+00,-0.028000,
1.106000e+00,-0.040000,
1.108000e+00,-0.028000,
1.110000e+00,-0.040000,
1.112000e+00,-0.032000,
1.114000e+00,-0.040000,
1.116000e+00,-0.028000,
1.118000e+00,-0.040000,
1.120000e+00,-0.040000,
1.122000e+00,-0.028000,
1.124000e+00,-0.032000,
1.126000e+00,-0.040000,
1.128000e+00,-0.028000,
1.130000e+00,-0.036000,
1.132000e+00,-0.028000,
1.134000e+00,-0.040000,
1.136000e+00,-0.028000,
1.138000e+00,-0.040000,
1.140000e+00,-0.028000,
1.142000e+00,-0.036000,
1.144000e+00,-0.028000,
1.146000e+00,-0.036000,
1.148000e+00,-0.028000,
1.150000e+00,-0.040000,
1.152000e+00,-0.028000,
1.154000e+00,-0.040000,
1.156000e+00,-0.028000,
1.158000e+00,-0.036000,
1.160000e+00,-0.028000,
1.162000e+00,-0.040000,
1.164000e+00,-0.024000,
1.166000e+00,-0.036000,
1.168000e+00,-0.020000,
1.170000e+00,-0.032000,
1.172000e+00,-0.024000,
1.174000e+00,-0.032000,
1.176000e+00,-0.024000,
1.178000e+00,-0.032000,
1.180000e+00,-0.020000,
1.182000e+00,-0.032000,
1.184000e+00,-0.020000,
1.186000e+00,-0.028000,
1.188000e+00,-0.020000,
1.190000e+00,-0.028000,
1.192000e+00,-0.020000,
1.194000e+00,-0.028000,
1.196000e+00,-0.020000,
1.198000e+00,-0.028000,
1.200000e+00,-0.016000,
1.202000e+00,-0.028000,
1.204000e+00,-0.016000,
1.206000e+00,-0.028000,
1.208000e+00,-0.016000,
1.210000e+00,-0.024000,
1.212000e+00,-0.016000,
1.214000e+00,-0.028000,
1.216000e+00,-0.016000,
1.218000e+00,-0.024000,
1.220000e+00,-0.016000,
1.222000e+00,-0.024000,
1.224000e+00,-0.012000,
1.226000e+00,-0.024000,
1.228000e+00,-0.012000,
1.230000e+00,-0.024000,
1.232000e+00,-0.008000,
1.234000e+00,-0.020000,
1.236000e+00,-0.012000,
1.238000e+00,-0.020000,
1.240000e+00,-0.012000,
1.242000e+00,-0.020000,
1.244000e+00,-0.008000,
1.246000e+00,-0.016000,
1.248000e+00,-0.008000,
1.250000e+00,-0.016000,
1.252000e+00,-0.008000,
1.254000e+00,-0.016000,
1.256000e+00,-0.020000,
1.258000e+00,-0.004000,
1.260000e+00,-0.004000,
1.262000e+00,-0.016000,
1.264000e+00,-0.004000,
1.266000e+00,-0.012000,
1.268000e+00,-0.004000,
1.270000e+00,-0.012000,
1.272000e+00,-0.004000,
1.274000e+00,-0.012000,
1.276000e+00,-0.012000,
1.278000e+00,0.000000,
1.280000e+00,-0.012000,
1.282000e+00,0.000000,
1.284000e+00,0.000000,
1.286000e+00,-0.008000,
1.288000e+00,0.000000,
1.290000e+00,-0.008000,
1.292000e+00,0.000000,
1.294000e+00,-0.008000,
1.296000e+00,0.000000,
1.298000e+00,-0.008000,
1.300000e+00,0.004000,
1.302000e+00,-0.008000,
1.304000e+00,0.008000,
1.306000e+00,-0.008000,
1.308000e+00,0.000000,
1.310000e+00,-0.008000,
1.312000e+00,0.000000,
1.314000e+00,-0.004000,
1.316000e+00,0.000000,
1.318000e+00,-0.008000,
1.320000e+00,0.000000,
1.322000e+00,-0.008000,
1.324000e+00,0.000000,
1.326000e+00,-0.008000,
1.328000e+00,0.000000,
1.330000e+00,-0.008000,
1.332000e+00,0.000000,
1.334000e+00,-0.008000,
1.336000e+00,0.000000,
1.338000e+00,-0.004000,
1.340000e+00,0.004000,
1.342000e+00,-0.008000,
1.344000e+00,0.004000,
1.346000e+00,-0.004000,
1.348000e+00,0.004000,
1.350000e+00,-0.004000,
1.352000e+00,0.008000,
1.354000e+00,-0.008000,
1.356000e+00,0.004000,
1.358000e+00,-0.004000,
1.360000e+00,0.004000,
1.362000e+00,-0.004000,
1.364000e+00,0.004000,
1.366000e+00,-0.008000,
1.368000e+00,0.004000,
1.370000e+00,-0.004000,
1.372000e+00,0.000000,
1.374000e+00,-0.008000,
1.376000e+00,0.000000,
1.378000e+00,-0.004000,
1.380000e+00,0.000000,
1.382000e+00,-0.008000,
1.384000e+00,0.000000,
1.386000e+00,-0.008000,
1.388000e+00,0.000000,
1.390000e+00,-0.008000,
1.392000e+00,0.000000,
1.394000e+00,-0.008000,
1.396000e+00,0.000000,
1.398000e+00,-0.012000,
1.400000e+00,0.000000,
1.402000e+00,-0.016000,
1.404000e+00,0.000000,
1.406000e+00,-0.012000,
1.408000e+00,-0.004000,
1.410000e+00,-0.012000,
1.412000e+00,-0.004000,
1.414000e+00,-0.012000,
1.416000e+00,-0.004000,
1.418000e+00,-0.012000,
1.420000e+00,-0.004000,
1.422000e+00,-0.012000,
1.424000e+00,-0.016000,
1.426000e+00,-0.004000,
1.428000e+00,-0.004000,
1.430000e+00,-0.016000,
1.432000e+00,-0.004000,
1.434000e+00,-0.016000,
1.436000e+00,-0.008000,
1.438000e+00,-0.016000,
1.440000e+00,-0.008000,
1.442000e+00,-0.016000,
1.444000e+00,-0.008000,
1.446000e+00,-0.016000,
1.448000e+00,-0.008000,
1.450000e+00,-0.016000,
1.452000e+00,-0.008000,
1.454000e+00,-0.020000,
1.456000e+00,-0.004000,
1.458000e+00,-0.016000,
1.460000e+00,-0.020000,
1.462000e+00,-0.008000,
1.464000e+00,-0.012000,
1.466000e+00,-0.020000,
1.468000e+00,-0.008000,
1.470000e+00,-0.016000,
1.472000e+00,-0.012000,
1.474000e+00,-0.016000,
1.476000e+00,-0.020000,
1.478000e+00,-0.008000,
1.480000e+00,-0.008000,
1.482000e+00,-0.020000,
1.484000e+00,-0.008000,
1.486000e+00,-0.020000,
1.488000e+00,-0.012000,
1.490000e+00,-0.020000,
1.492000e+00,-0.012000,
1.494000e+00,-0.020000,
1.496000e+00,-0.012000,
1.498000e+00,-0.020000,
1.500000e+00,-0.012000,
1.502000e+00,-0.020000,
1.504000e+00,-0.012000,
1.506000e+00,-0.020000,
1.508000e+00,-0.012000,
1.510000e+00,-0.020000,
1.512000e+00,-0.012000,
1.514000e+00,-0.020000,
1.516000e+00,-0.012000,
1.518000e+00,-0.024000,
1.520000e+00,-0.012000,
1.522000e+00,-0.024000,
1.524000e+00,-0.012000,
1.526000e+00,-0.024000,
1.528000e+00,-0.016000,
1.530000e+00,-0.024000,
1.532000e+00,-0.012000,
1.534000e+00,-0.024000,
1.536000e+00,-0.012000,
1.538000e+00,-0.024000,
1.540000e+00,-0.024000,
1.542000e+00,-0.012000,
1.544000e+00,-0.012000,
1.546000e+00,-0.020000,
1.548000e+00,-0.012000,
1.550000e+00,-0.024000,
1.552000e+00,-0.012000,
1.554000e+00,-0.020000,
1.556000e+00,-0.012000,
1.558000e+00,-0.024000,
1.560000e+00,-0.012000,
1.562000e+00,-0.020000,
1.564000e+00,-0.012000,
1.566000e+00,-0.020000,
1.568000e+00,-0.012000,
1.570000e+00,-0.020000,
1.572000e+00,-0.012000,
1.574000e+00,-0.020000,
1.576000e+00,-0.012000,
1.578000e+00,-0.020000,
1.580000e+00,-0.012000,
1.582000e+00,-0.020000,
1.584000e+00,-0.012000,
1.586000e+00,-0.020000,
1.588000e+00,-0.008000,
1.590000e+00,-0.020000,
1.592000e+00,-0.012000,
1.594000e+00,-0.016000,
1.596000e+00,-0.008000,
1.598000e+00,-0.020000,
1.600000e+00,-0.020000,
1.602000e+00,-0.008000,
1.604000e+00,-0.012000,
1.606000e+00,-0.020000,
1.608000e+00,-0.012000,
1.610000e+00,-0.020000,
1.612000e+00,-0.012000,
1.614000e+00,-0.020000,
1.616000e+00,-0.008000,
1.618000e+00,-0.020000,
1.620000e+00,-0.008000,
1.622000e+00,-0.016000,
1.624000e+00,-0.020000,
1.626000e+00,-0.008000,
1.628000e+00,-0.012000,
1.630000e+00,-0.020000,
1.632000e+00,-0.012000,
1.634000e+00,-0.020000,
1.636000e+00,-0.012000,
1.638000e+00,-0.020000,
1.640000e+00,-0.012000,
1.642000e+00,-0.020000,
1.644000e+00,-0.012000,
1.646000e+00,-0.020000,
1.648000e+00,-0.012000,
1.650000e+00,-0.024000,
1.652000e+00,-0.012000,
1.654000e+00,-0.020000,
1.656000e+00,-0.012000,
1.658000e+00,-0.024000,
1.660000e+00,-0.012000,
1.662000e+00,-0.024000,
1.664000e+00,-0.012000,
1.666000e+00,-0.024000,
1.668000e+00,-0.016000,
1.670000e+00,-0.020000,
1.672000e+00,-0.012000,
1.674000e+00,-0.020000,
1.676000e+00,-0.012000,
1.678000e+00,-0.024000,
1.680000e+00,-0.012000,
1.682000e+00,-0.020000,
1.684000e+00,-0.012000,
1.686000e+00,-0.024000,
1.688000e+00,-0.012000,
1.690000e+00,-0.020000,
1.692000e+00,-0.024000,
1.694000e+00,-0.012000,
1.696000e+00,-0.016000,
1.698000e+00,-0.020000,
1.700000e+00,-0.008000,
1.702000e+00,-0.024000,
1.704000e+00,-0.012000,
1.706000e+00,-0.020000,
1.708000e+00,-0.012000,
1.710000e+00,-0.024000,
1.712000e+00,-0.016000,
1.714000e+00,-0.024000,
1.716000e+00,-0.016000,
1.718000e+00,-0.024000,
1.720000e+00,-0.016000,
1.722000e+00,-0.024000,
1.724000e+00,-0.016000,
1.726000e+00,-0.024000,
1.728000e+00,-0.016000,
1.730000e+00,-0.024000,
1.732000e+00,-0.016000,
1.734000e+00,-0.024000,
1.736000e+00,-0.016000,
1.738000e+00,-0.024000,
1.740000e+00,-0.016000,
1.742000e+00,-0.024000,
1.744000e+00,-0.016000,
1.746000e+00,-0.024000,
1.748000e+00,-0.016000,
1.750000e+00,-0.028000,
1.752000e+00,-0.016000,
1.754000e+00,-0.024000,
1.756000e+00,-0.016000,
1.758000e+00,-0.024000,
1.760000e+00,-0.016000,
1.762000e+00,-0.028000,
1.764000e+00,-0.016000,
1.766000e+00,-0.024000,
1.768000e+00,-0.016000,
1.770000e+00,-0.024000,
1.772000e+00,-0.012000,
1.774000e+00,-0.024000,
1.776000e+00,-0.016000,
1.778000e+00,-0.024000,
1.780000e+00,-0.016000,
1.782000e+00,-0.024000,
1.784000e+00,-0.016000,
1.786000e+00,-0.024000,
1.788000e+00,-0.016000,
1.790000e+00,-0.024000,
1.792000e+00,-0.016000,
1.794000e+00,-0.024000,
1.796000e+00,-0.016000,
1.798000e+00,-0.024000,
1.800000e+00,-0.024000,
1.802000e+00,-0.012000,
1.804000e+00,-0.012000,
1.806000e+00,-0.024000,
1.808000e+00,-0.016000,
1.810000e+00,-0.024000,
1.812000e+00,-0.016000,
1.814000e+00,-0.024000,
1.816000e+00,-0.016000,
1.818000e+00,-0.024000,
1.820000e+00,-0.016000,
1.822000e+00,-0.024000,
1.824000e+00,-0.016000,
1.826000e+00,-0.024000,
1.828000e+00,-0.016000,
1.830000e+00,-0.024000,
1.832000e+00,-0.016000,
1.834000e+00,-0.024000,
1.836000e+00,-0.016000,
1.838000e+00,-0.028000,
1.840000e+00,-0.016000,
1.842000e+00,-0.024000,
1.844000e+00,-0.016000,
1.846000e+00,-0.024000,
1.848000e+00,-0.016000,
1.850000e+00,-0.028000,
1.852000e+00,-0.016000,
1.854000e+00,-0.028000,
1.856000e+00,-0.016000,
1.858000e+00,-0.024000,
1.860000e+00,-0.012000,
1.862000e+00,-0.024000,
1.864000e+00,-0.016000,
1.866000e+00,-0.024000,
1.868000e+00,-0.016000,
1.870000e+00,-0.024000,
1.872000e+00,-0.016000,
1.874000e+00,-0.024000,
1.876000e+00,-0.016000,
1.878000e+00,-0.024000,
1.880000e+00,-0.016000,
1.882000e+00,-0.024000,
1.884000e+00,-0.016000,
1.886000e+00,-0.024000,
1.888000e+00,-0.012000,
1.890000e+00,-0.024000,
1.892000e+00,-0.012000,
1.894000e+00,-0.024000,
1.896000e+00,-0.024000,
1.898000e+00,-0.012000,
1.900000e+00,-0.024000,
1.902000e+00,-0.008000,
1.904000e+00,-0.012000,
1.906000e+00,-0.020000,
1.908000e+00,-0.008000,
1.910000e+00,-0.020000,
1.912000e+00,-0.008000,
1.914000e+00,-0.016000,
1.916000e+00,-0.008000,
1.918000e+00,-0.016000,
1.920000e+00,-0.008000,
1.922000e+00,-0.016000,
1.924000e+00,-0.004000,
1.926000e+00,-0.012000,
1.928000e+00,-0.004000,
1.930000e+00,-0.012000,
1.932000e+00,0.000000,
1.934000e+00,-0.008000,
1.936000e+00,0.008000,
1.938000e+00,-0.004000,
1.940000e+00,0.008000,
1.942000e+00,0.000000,
1.944000e+00,0.004000,
1.946000e+00,0.016000,
1.948000e+00,0.016000,
1.950000e+00,0.008000,
1.952000e+00,0.024000,
1.954000e+00,0.012000,
1.956000e+00,0.016000,
1.958000e+00,0.028000,
1.960000e+00,0.032000,
1.962000e+00,0.024000,
1.964000e+00,0.028000,
1.966000e+00,0.040000,
1.968000e+00,0.036000,
1.970000e+00,0.048000,
1.972000e+00,0.040000,
1.974000e+00,0.056000,
1.976000e+00,0.048000,
1.978000e+00,0.064000,
1.980000e+00,0.068000,
1.982000e+00,0.056000,
1.984000e+00,0.064000,
1.986000e+00,0.076000,
1.988000e+00,0.068000,
1.990000e+00,0.080000,
1.992000e+00,0.076000,
1.994000e+00,0.088000,
1.996000e+00,0.084000,
1.998000e+00,0.096000,
2.000000e+00,0.092000,
2.002000e+00,0.108000,
2.004000e+00,0.112000,
2.006000e+00,0.096000,
2.008000e+00,0.100000,
2.010000e+00,0.120000,
2.012000e+00,0.112000,
2.014000e+00,0.124000,
2.016000e+00,0.128000,
2.018000e+00,0.120000,
2.020000e+00,0.132000,
2.022000e+00,0.124000,
2.024000e+00,0.136000,
2.026000e+00,0.128000,
2.028000e+00,0.140000,
2.030000e+00,0.132000,
2.032000e+00,0.140000,
2.034000e+00,0.132000,
2.036000e+00,0.144000,
2.038000e+00,0.136000,
2.040000e+00,0.144000,
2.042000e+00,0.136000,
2.044000e+00,0.144000,
2.046000e+00,0.136000,
2.048000e+00,0.144000,
2.050000e+00,0.136000,
2.052000e+00,0.128000,
2.054000e+00,0.144000,
2.056000e+00,0.140000,
2.058000e+00,0.132000,
2.060000e+00,0.144000,
2.062000e+00,0.128000,
2.064000e+00,0.136000,
2.066000e+00,0.128000,
2.068000e+00,0.136000,
2.070000e+00,0.124000,
2.072000e+00,0.128000,
2.074000e+00,0.120000,
2.076000e+00,0.128000,
2.078000e+00,0.120000,
2.080000e+00,0.124000,
2.082000e+00,0.112000,
2.084000e+00,0.120000,
2.086000e+00,0.108000,
2.088000e+00,0.116000,
2.090000e+00,0.100000,
2.092000e+00,0.108000,
2.094000e+00,0.096000,
2.096000e+00,0.104000,
2.098000e+00,0.092000,
2.100000e+00,0.100000,
2.102000e+00,0.088000,
2.104000e+00,0.092000,
2.106000e+00,0.084000,
2.108000e+00,0.088000,
2.110000e+00,0.080000,
2.112000e+00,0.084000,
2.114000e+00,0.072000,
2.116000e+00,0.080000,
2.118000e+00,0.068000,
2.120000e+00,0.072000,
2.122000e+00,0.060000,
2.124000e+00,0.068000,
2.126000e+00,0.056000,
2.128000e+00,0.060000,
2.130000e+00,0.048000,
2.132000e+00,0.056000,
2.134000e+00,0.048000,
2.136000e+00,0.052000,
2.138000e+00,0.040000,
2.140000e+00,0.048000,
2.142000e+00,0.036000,
2.144000e+00,0.044000,
2.146000e+00,0.032000,
2.148000e+00,0.040000,
2.150000e+00,0.024000,
2.152000e+00,0.036000,
2.154000e+00,0.020000,
2.156000e+00,0.028000,
2.158000e+00,0.020000,
2.160000e+00,0.028000,
2.162000e+00,0.012000,
2.164000e+00,0.024000,
2.166000e+00,0.016000,
2.168000e+00,0.020000,
2.170000e+00,0.012000,
2.172000e+00,0.016000,
2.174000e+00,0.008000,
2.176000e+00,0.020000,
2.178000e+00,0.008000,
2.180000e+00,0.012000,
2.182000e+00,0.004000,
2.184000e+00,0.012000,
2.186000e+00,0.000000,
2.188000e+00,0.008000,
2.190000e+00,0.000000,
2.192000e+00,0.008000,
2.194000e+00,-0.004000,
2.196000e+00,0.004000,
2.198000e+00,-0.004000,
2.200000e+00,0.004000,
2.202000e+00,-0.012000,
2.204000e+00,0.004000,
2.206000e+00,-0.008000,
2.208000e+00,0.000000,
2.210000e+00,-0.008000,
2.212000e+00,-0.004000,
2.214000e+00,-0.012000,
2.216000e+00,-0.004000,
2.218000e+00,-0.016000,
2.220000e+00,-0.008000,
2.222000e+00,-0.016000,
2.224000e+00,-0.008000,
2.226000e+00,-0.016000,
2.228000e+00,-0.008000,
2.230000e+00,-0.020000,
2.232000e+00,-0.012000,
2.234000e+00,-0.024000,
2.236000e+00,-0.012000,
2.238000e+00,-0.024000,
2.240000e+00,-0.024000,
2.242000e+00,-0.012000,
2.244000e+00,-0.012000,
2.246000e+00,-0.020000,
2.248000e+00,-0.024000,
2.250000e+00,-0.012000,
2.252000e+00,-0.016000,
2.254000e+00,-0.028000,
2.256000e+00,-0.012000,
2.258000e+00,-0.024000,
2.260000e+00,-0.012000,
2.262000e+00,-0.024000,
2.264000e+00,-0.016000,
2.266000e+00,-0.024000,
2.268000e+00,-0.016000,
2.270000e+00,-0.024000,
2.272000e+00,-0.016000,
2.274000e+00,-0.024000,
2.276000e+00,-0.016000,
2.278000e+00,-0.024000,
2.280000e+00,-0.016000,
2.282000e+00,-0.024000,
2.284000e+00,-0.012000,
2.286000e+00,-0.024000,
2.288000e+00,-0.012000,
2.290000e+00,-0.024000,
2.292000e+00,-0.024000,
2.294000e+00,-0.012000,
2.296000e+00,-0.012000,
2.298000e+00,-0.020000,
2.300000e+00,-0.012000,
2.302000e+00,-0.024000,
2.304000e+00,-0.012000,
2.306000e+00,-0.024000,
2.308000e+00,-0.012000,
2.310000e+00,-0.020000,
2.312000e+00,-0.012000,
2.314000e+00,-0.020000,
2.316000e+00,-0.012000,
2.318000e+00,-0.020000,
2.320000e+00,-0.012000,
2.322000e+00,-0.020000,
2.324000e+00,-0.012000,
2.326000e+00,-0.020000,
2.328000e+00,-0.012000,
2.330000e+00,-0.020000,
2.332000e+00,-0.012000,
2.334000e+00,-0.020000,
2.336000e+00,-0.012000,
2.338000e+00,-0.024000,
2.340000e+00,-0.012000,
2.342000e+00,-0.020000,
2.344000e+00,-0.012000,
2.346000e+00,-0.020000,
2.348000e+00,-0.012000,
2.350000e+00,-0.020000,
2.352000e+00,-0.012000,
2.354000e+00,-0.020000,
2.356000e+00,-0.008000,
2.358000e+00,-0.020000,
2.360000e+00,-0.012000,
2.362000e+00,-0.020000,
2.364000e+00,-0.008000,
2.366000e+00,-0.020000,
2.368000e+00,-0.012000,
2.370000e+00,-0.020000,
2.372000e+00,-0.020000,
2.374000e+00,-0.008000,
2.376000e+00,-0.012000,
2.378000e+00,-0.020000,
2.380000e+00,-0.008000,
2.382000e+00,-0.016000,
2.384000e+00,-0.012000,
2.386000e+00,-0.020000,
2.388000e+00,-0.020000,
2.390000e+00,-0.008000,
2.392000e+00,-0.008000,
2.394000e+00,-0.016000,
2.396000e+00,-0.008000,
2.398000e+00,-0.020000,
2.400000e+00,-0.008000,
2.402000e+00,-0.020000,
2.404000e+00,-0.008000,
2.406000e+00,-0.016000,
2.408000e+00,-0.008000,
2.410000e+00,-0.016000,
2.412000e+00,-0.008000,
2.414000e+00,-0.016000,
2.416000e+00,-0.008000,
2.418000e+00,-0.020000,
2.420000e+00,-0.008000,
2.422000e+00,-0.016000,
2.424000e+00,-0.008000,
2.426000e+00,-0.016000,
2.428000e+00,-0.008000,
2.430000e+00,-0.016000,
2.432000e+00,-0.008000,
2.434000e+00,-0.016000,
2.436000e+00,-0.008000,
2.438000e+00,-0.016000,
2.440000e+00,-0.008000,
2.442000e+00,-0.016000,
2.444000e+00,-0.008000,
2.446000e+00,-0.016000,
2.448000e+00,-0.008000,
2.450000e+00,-0.020000,
2.452000e+00,-0.012000,
2.454000e+00,-0.024000,
2.456000e+00,-0.008000,
2.458000e+00,-0.024000,
2.460000e+00,-0.012000,
2.462000e+00,-0.020000,
2.464000e+00,-0.012000,
2.466000e+00,-0.020000,
2.468000e+00,-0.008000,
2.470000e+00,-0.016000,
2.472000e+00,-0.012000,
2.474000e+00,-0.020000,
2.476000e+00,-0.008000,
2.478000e+00,-0.020000,
2.480000e+00,-0.008000,
2.482000e+00,-0.016000,
2.484000e+00,-0.020000,
2.486000e+00,-0.008000,
2.488000e+00,-0.008000,
2.490000e+00,-0.020000,
2.492000e+00,-0.008000,
2.494000e+00,-0.016000,
2.496000e+00,-0.008000,
2.498000e+00,-0.016000,
2.500000e+00,-0.004000,
2.502000e+00,-0.016000,
2.504000e+00,-0.008000,
2.506000e+00,-0.016000,
2.508000e+00,-0.004000,
2.510000e+00,-0.016000,
2.512000e+00,-0.008000,
2.514000e+00,-0.016000,
2.516000e+00,-0.008000,
2.518000e+00,-0.016000,
2.520000e+00,-0.008000,
2.522000e+00,-0.016000,
2.524000e+00,-0.004000,
2.526000e+00,-0.016000,
2.528000e+00,-0.008000,
2.530000e+00,-0.016000,
2.532000e+00,-0.016000,
2.534000e+00,-0.004000,
2.536000e+00,-0.016000,
2.538000e+00,-0.004000,
2.540000e+00,-0.016000,
2.542000e+00,-0.004000,
2.544000e+00,-0.004000,
2.546000e+00,-0.012000,
2.548000e+00,0.000000,
2.550000e+00,-0.012000,
2.552000e+00,0.000000,
2.554000e+00,-0.012000,
2.556000e+00,-0.004000,
2.558000e+00,-0.012000,
2.560000e+00,-0.004000,
2.562000e+00,-0.012000,
2.564000e+00,-0.004000,
